TITLE,ACE2_D2_0.8uM
DATA TYPE,
ORIGIN,JASCO
OWNER,
DATE,24/02/26
TIME,17:19:22
SPECTROMETER/DATA SYSTEM,
LOCALE,1033
RESOLUTION,
DELTAX,-0.1
XUNITS,NANOMETERS
YUNITS,Mol. Ellip.
Y2UNITS,HT [V]
FIRSTX,  350.0000
LASTX,  190.0000
NPOINTS,    1601
FIRSTY,250000.00000
MAXY,858704.18750
MINY,-1695665.25000
XYDATA
350.0000,250000,468.403
349.9000,220229,467.844
349.8000,219040,466.999
349.7000,226079,466.151
349.6000,230684,465.52
349.5000,242452,464.957
349.4000,307357,464.11
349.3000,312143,463.497
349.2000,344018,462.981
349.1000,382390,462.179
349.0000,415419,461.592
348.9000,437478,461.072
348.8000,435446,460.239
348.7000,439801,459.392
348.6000,429430,458.775
348.5000,412421,458.229
348.4000,387344,457.366
348.3000,357207,456.714
348.2000,317805,456.132
348.1000,258660,455.275
348.0000,216059,454.644
347.9000,177481,454.099
347.8000,136448,453.278
347.7000,137915,452.456
347.6000,154384,451.868
347.5000,160428,451.37
347.4000,164222,450.584
347.3000,185547,449.996
347.2000,207938,449.487
347.1000,223447,448.719
347.0000,255242,448.156
346.9000,259686,447.659
346.8000,274489,446.91
346.7000,290136,446.153
346.6000,293250,445.59
346.5000,286925,444.858
346.4000,266829,444.105
346.3000,253823,443.533
346.2000,268320,442.79
346.1000,252755,442.033
346.0000,228489,441.476
345.9000,223108,440.992
345.8000,208682,440.243
345.7000,197624,439.693
345.6000,205508,439.225
345.5000,223547,438.545
345.4000,219200,438.05
345.3000,226414,437.631
345.2000,229009,436.958
345.1000,239966,436.276
345.0000,241781,435.776
344.9000,249340,435.117
344.8000,271262,434.446
344.7000,291674,433.922
344.6000,296234,433.244
344.5000,291529,432.555
344.4000,295409,432.046
344.3000,293319,431.387
344.2000,294050,430.719
344.1000,297149,430.23
344.0000,272708,429.581
343.9000,250437,428.934
343.8000,234367,428.454
343.7000,221822,428.037
343.6000,202693,427.421
343.5000,192916,426.974
343.4000,182402,426.597
343.3000,203648,425.98
343.2000,236313,425.538
343.1000,249912,425.156
343.0000,244647,424.584
342.9000,240761,424.005
342.8000,256688,423.564
342.7000,272630,422.954
342.6000,273343,422.33
342.5000,265757,421.877
342.4000,261627,421.318
342.3000,268203,420.754
342.2000,278115,420.328
342.1000,300378,419.778
342.0000,303242,419.217
341.9000,276895,418.825
341.8000,253887,418.318
341.7000,240918,417.8
341.6000,212880,417.407
341.5000,186184,416.871
341.4000,177311,416.325
341.3000,165611,415.908
341.2000,155179,415.374
341.1000,166507,414.832
341.0000,190144,414.425
340.9000,194035,413.873
340.8000,197634,413.315
340.7000,195767,412.898
340.6000,187590,412.393
340.5000,179554,411.886
340.4000,161448,411.501
340.3000,146339,410.984
340.2000,126744,410.456
340.1000,110037,410.08
340.0000,117017,409.617
339.9000,138408,409.154
339.8000,149935,408.797
339.7000,160172,408.321
339.6000,180447,407.839
339.5000,192117,407.49
339.4000,208486,407.047
339.3000,240503,406.588
339.2000,257752,406.067
339.1000,261426,405.594
339.0000,243485,405.106
338.9000,227053,404.591
338.8000,227830,404.136
338.7000,215497,403.674
338.6000,200506,403.153
338.5000,180979,402.685
338.4000,161773,402.348
338.3000,147961,401.942
338.2000,150728,401.534
338.1000,160925,401.24
338.0000,163888,400.834
337.9000,170508,400.417
337.8000,182474,400.128
337.7000,176206,399.738
337.6000,174309,399.336
337.5000,164055,399.023
337.4000,148035,398.611
337.3000,142148,398.186
337.2000,141718,397.729
337.1000,123344,397.321
337.0000,115578,396.909
336.9000,115816,396.471
336.8000,133937,396.09
336.7000,140482,395.704
336.6000,152448,395.287
336.5000,161712,394.915
336.4000,152677,394.648
336.3000,155970,394.28
336.2000,158545,393.902
336.1000,154877,393.621
336.0000,145172,393.261
335.9000,137505,392.885
335.8000,115667,392.453
335.7000,115258,392.067
335.6000,121568,391.672
335.5000,138035,391.27
335.4000,135856,390.915
335.3000,133546,390.56
335.2000,138935,390.181
335.1000,141738,389.844
335.0000,154765,389.624
334.9000,156391,389.317
334.8000,144691,388.997
334.7000,135509,388.63
334.6000,131978,388.302
334.5000,143006,387.968
334.4000,141334,387.603
334.3000,141281,387.274
334.2000,136535,386.936
334.1000,120713,386.55
334.0000,127544,386.215
333.9000,117511,385.974
333.8000,93191.6,385.661
333.7000,77889.8,385.345
333.6000,75706,384.978
333.5000,78080.1,384.648
333.4000,73130.3,384.31
333.3000,80939.6,383.966
333.2000,85257.5,383.668
333.1000,84630.8,383.364
333.0000,89812.6,383.042
332.9000,87622.1,382.747
332.8000,86962.7,382.427
332.7000,83429.2,382.153
332.6000,95759.8,381.876
332.5000,107936,381.56
332.4000,106178,381.276
332.3000,100563,380.987
332.2000,110287,380.665
332.1000,125725,380.374
332.0000,130545,380.044
331.9000,128612,379.753
331.8000,129226,379.461
331.7000,115406,379.154
331.6000,111982,378.884
331.5000,111466,378.486
331.4000,107671,378.164
331.3000,99892.6,377.875
331.2000,103324,377.579
331.1000,103306,377.323
331.0000,89289.7,377.057
330.9000,75074.6,376.761
330.8000,60325.6,376.488
330.7000,57977.3,376.207
330.6000,63266.4,375.967
330.5000,73871.4,375.729
330.4000,80782.9,375.45
330.3000,88286.6,375.197
330.2000,84018.4,374.848
330.1000,84128.1,374.571
330.0000,84511.4,374.331
329.9000,89533.9,374.044
329.8000,89183.9,373.786
329.7000,84510.7,373.448
329.6000,71686.1,373.185
329.5000,53678.3,372.961
329.4000,36731.8,372.676
329.3000,25586.8,372.417
329.2000,23163.6,372.079
329.1000,19608.1,371.825
329.0000,22468.8,371.617
328.9000,14624.1,371.356
328.8000,10866.2,371.12
328.7000,20229.2,370.823
328.6000,41187.7,370.617
328.5000,60610.2,370.457
328.4000,72236.7,370.208
328.3000,78868.9,369.972
328.2000,71406.8,369.705
328.1000,68591.6,369.517
328.0000,64898.6,369.36
327.9000,65577.9,369.075
327.8000,53034,368.798
327.7000,43511.7,368.523
327.6000,24282.9,368.353
327.5000,22945.4,368.239
327.4000,8637.49,367.956
327.3000,1340.71,367.665
327.2000,5313.03,367.395
327.1000,12999.5,367.255
327.0000,12863.7,367.172
326.9000,21510.4,366.91
326.8000,33548,366.626
326.7000,42875.7,366.339
326.6000,49034.2,366.189
326.5000,67259.7,366.113
326.4000,65506.2,365.826
326.3000,51338.2,365.508
326.2000,38662.1,365.215
326.1000,20663,365.055
326.0000,16388.5,364.76
325.9000,17281.9,364.464
325.8000,14920,364.159
325.7000,13534.9,363.884
325.6000,17202.8,363.747
325.5000,25555.7,363.489
325.4000,42340,363.214
325.3000,53997,362.915
325.2000,54081.1,362.799
325.1000,41067.7,362.759
325.0000,24103.2,362.535
324.9000,10334.5,362.281
324.8000,6350.53,362.02
324.7000,-7986.69,361.902
324.6000,-16505.4,361.852
324.5000,-25287.2,361.61
324.4000,-24628.6,361.337
324.3000,-16860.9,361.056
324.2000,-2527.89,360.905
324.1000,14249.4,360.627
324.0000,8151.44,360.334
323.9000,-1684.66,360.025
323.8000,-7091.13,359.737
323.7000,-12772.5,359.581
323.6000,-12700.1,359.338
323.5000,-27752.9,359.076
323.4000,-39858.1,358.822
323.3000,-41939.7,358.712
323.2000,-46026.8,358.671
323.1000,-40881.1,358.505
323.0000,-35161.7,358.317
322.9000,-27991.9,358.075
322.8000,-21035.4,357.938
322.7000,-22362.1,357.699
322.6000,-10203.3,357.435
322.5000,-14018.7,357.135
322.4000,-15787.2,356.834
322.3000,-8521.48,356.615
322.2000,-6560.65,356.263
322.1000,-17265.2,355.929
322.0000,-41538.3,355.61
321.9000,-50497.5,355.41
321.8000,-51890,355.169
321.7000,-51119.9,354.946
321.6000,-42535,354.726
321.5000,-48674.1,354.493
321.4000,-61715.7,354.393
321.3000,-68794.4,354.287
321.2000,-61168.6,354.189
321.1000,-53713.3,354.034
321.0000,-65900,353.96
320.9000,-82876,353.822
320.8000,-96294.6,353.681
320.7000,-99726.1,353.522
320.6000,-93001.2,353.364
320.5000,-95790.8,353.263
320.4000,-96432.9,353.054
320.3000,-96438.2,352.876
320.2000,-90504.1,352.686
320.1000,-78877.4,352.567
320.0000,-77605.9,352.401
319.9000,-87756.7,352.254
319.8000,-95278.5,352.063
319.7000,-92202.4,351.865
319.6000,-89251.3,351.683
319.5000,-93807.6,351.544
319.4000,-98058.3,351.418
319.3000,-105055,351.227
319.2000,-99407.5,351.092
319.1000,-91321.3,350.902
319.0000,-88913.3,350.745
318.9000,-95499.3,350.543
318.8000,-104164,350.389
318.7000,-107000,350.157
318.6000,-110539,349.916
318.5000,-111653,349.7
318.4000,-115948,349.504
318.3000,-111527,349.315
318.2000,-111317,349.153
318.1000,-109831,349.031
318.0000,-98967.3,348.863
317.9000,-97032.6,348.762
317.8000,-95024.1,348.644
317.7000,-85858.9,348.545
317.6000,-78575.2,348.372
317.5000,-75382.4,348.239
317.4000,-77321.5,348.064
317.3000,-76960,347.885
317.2000,-84807,347.681
317.1000,-88712.4,347.494
317.0000,-84679,347.278
316.9000,-84530.8,347.074
316.8000,-91894.9,346.877
316.7000,-104566,346.695
316.6000,-118646,346.53
316.5000,-120825,346.386
316.4000,-116276,346.212
316.3000,-103510,346.059
316.2000,-105508,345.919
316.1000,-109989,345.806
316.0000,-112055,345.724
315.9000,-107010,345.579
315.8000,-94658.5,345.453
315.7000,-91261.6,345.289
315.6000,-100085,345.181
315.5000,-108671,345.019
315.4000,-115539,344.88
315.3000,-114407,344.687
315.2000,-112864,344.488
315.1000,-117590,344.3
315.0000,-129190,344.133
314.9000,-135600,343.974
314.8000,-140210,343.824
314.7000,-138336,343.662
314.6000,-141161,343.522
314.5000,-148431,343.399
314.4000,-152975,343.299
314.3000,-157421,343.149
314.2000,-155234,343.015
314.1000,-151743,342.868
314.0000,-149630,342.723
313.9000,-155090,342.544
313.8000,-162229,342.386
313.7000,-161234,342.183
313.6000,-159647,341.983
313.5000,-166186,341.795
313.4000,-181614,341.627
313.3000,-196207,341.475
313.2000,-198931,341.333
313.1000,-197422,341.176
313.0000,-204042,341.044
312.9000,-201490,340.938
312.8000,-209196,340.852
312.7000,-206094,340.715
312.6000,-195104,340.591
312.5000,-180855,340.444
312.4000,-182011,340.287
312.3000,-184122,340.104
312.2000,-187211,339.936
312.1000,-184200,339.73
312.0000,-177115,339.525
311.9000,-166884,339.331
311.8000,-157540,339.15
311.7000,-161428,338.988
311.6000,-160659,338.77
311.5000,-168098,338.609
311.4000,-169458,338.471
311.3000,-170221,338.376
311.2000,-184469,338.233
311.1000,-196280,338.13
311.0000,-212005,338.035
310.9000,-221033,337.949
310.8000,-223244,337.844
310.7000,-220043,337.768
310.6000,-215307,337.658
310.5000,-209778,337.548
310.4000,-198754,337.446
310.3000,-191698,337.366
310.2000,-185016,337.286
310.1000,-176115,337.21
310.0000,-177520,337.113
309.9000,-182346,337.037
309.8000,-186753,336.978
309.7000,-185414,336.859
309.6000,-181451,336.77
309.5000,-189935,336.674
309.4000,-194533,336.588
309.3000,-206671,336.43
309.2000,-211621,336.318
309.1000,-218058,336.192
309.0000,-217230,336.072
308.9000,-222097,335.953
308.8000,-229679,335.856
308.7000,-236414,335.765
308.6000,-243932,335.677
308.5000,-253409,335.568
308.4000,-250931,335.484
308.3000,-254483,335.425
308.2000,-254024,335.295
308.1000,-252863,335.202
308.0000,-252050,335.119
307.9000,-255621,335.043
307.8000,-252991,334.891
307.7000,-249998,334.786
307.6000,-255361,334.676
307.5000,-250154,334.51
307.4000,-252920,334.397
307.3000,-254901,334.303
307.2000,-256082,334.215
307.1000,-257052,334.06
307.0000,-256065,333.959
306.9000,-258743,333.883
306.8000,-246296,333.833
306.7000,-245326,333.758
306.6000,-246905,333.68
306.5000,-242416,333.612
306.4000,-241969,333.484
306.3000,-240911,333.398
306.2000,-237712,333.304
306.1000,-228321,333.213
306.0000,-239138,333.069
305.9000,-243203,332.974
305.8000,-253670,332.9
305.7000,-260540,332.771
305.6000,-258654,332.685
305.5000,-260819,332.615
305.4000,-268591,332.568
305.3000,-272551,332.464
305.2000,-271757,332.39
305.1000,-271344,332.32
305.0000,-263912,332.203
304.9000,-251492,332.132
304.8000,-252669,332.053
304.7000,-258611,331.979
304.6000,-256769,331.858
304.5000,-250534,331.77
304.4000,-251220,331.704
304.3000,-257352,331.59
304.2000,-263618,331.52
304.1000,-275111,331.465
304.0000,-282186,331.429
303.9000,-279295,331.34
303.8000,-275601,331.27
303.7000,-277426,331.227
303.6000,-282405,331.129
303.5000,-282798,331.07
303.4000,-279140,331.005
303.3000,-279146,330.902
303.2000,-274127,330.8
303.1000,-275658,330.722
303.0000,-283896,330.674
302.9000,-292483,330.578
302.8000,-303536,330.505
302.7000,-315134,330.452
302.6000,-317520,330.366
302.5000,-317759,330.316
302.4000,-318140,330.264
302.3000,-319762,330.176
302.2000,-319300,330.092
302.1000,-319136,330.011
302.0000,-315991,329.957
301.9000,-302565,329.877
301.8000,-291118,329.81
301.7000,-281404,329.762
301.6000,-281318,329.677
301.5000,-277273,329.63
301.4000,-276629,329.585
301.3000,-276868,329.514
301.2000,-275693,329.451
301.1000,-270732,329.398
301.0000,-271602,329.371
300.9000,-277870,329.305
300.8000,-284123,329.237
300.7000,-288632,329.187
300.6000,-296959,329.112
300.5000,-297717,329.054
300.4000,-306109,329.013
300.3000,-317121,328.941
300.2000,-328127,328.871
300.1000,-330363,328.818
300.0000,-334590,328.756
299.9000,-342740,328.703
299.8000,-346751,328.653
299.7000,-356818,328.587
299.6000,-360458,328.529
299.5000,-359388,328.474
299.4000,-363709,328.431
299.3000,-366638,328.365
299.2000,-373127,328.315
299.1000,-377417,328.283
299.0000,-388120,328.219
298.9000,-395316,328.173
298.8000,-395926,328.142
298.7000,-400853,328.086
298.6000,-400789,328.039
298.5000,-403447,327.996
298.4000,-403153,327.938
298.3000,-395239,327.888
298.2000,-392089,327.84
298.1000,-383056,327.791
298.0000,-377370,327.746
297.9000,-372918,327.71
297.8000,-372002,327.649
297.7000,-369462,327.601
297.6000,-377104,327.568
297.5000,-382203,327.515
297.4000,-380415,327.478
297.3000,-372727,327.448
297.2000,-375873,327.39
297.1000,-379908,327.345
297.0000,-384029,327.306
296.9000,-388683,327.25
296.8000,-383436,327.206
296.7000,-381653,327.167
296.6000,-379488,327.139
296.5000,-389827,327.096
296.4000,-394850,327.064
296.3000,-403442,327.044
296.2000,-408717,327.009
296.1000,-407131,326.981
296.0000,-414711,326.96
295.9000,-421298,326.925
295.8000,-431248,326.872
295.7000,-435917,326.839
295.6000,-433110,326.806
295.5000,-422360,326.754
295.4000,-415005,326.694
295.3000,-407765,326.664
295.2000,-399074,326.619
295.1000,-393438,326.564
295.0000,-380105,326.537
294.9000,-368136,326.496
294.8000,-365363,326.439
294.7000,-368422,326.407
294.6000,-366231,326.382
294.5000,-366429,326.341
294.4000,-371280,326.31
294.3000,-377542,326.288
294.2000,-384793,326.245
294.1000,-394559,326.215
294.0000,-404544,326.198
293.9000,-406975,326.158
293.8000,-415204,326.132
293.7000,-421402,326.116
293.6000,-419692,326.078
293.5000,-418141,326.028
293.4000,-419800,326.005
293.3000,-422250,325.968
293.2000,-420446,325.924
293.1000,-418192,325.911
293.0000,-412523,325.877
292.9000,-415035,325.835
292.8000,-419537,325.821
292.7000,-429820,325.8
292.6000,-428609,325.77
292.5000,-428732,325.726
292.4000,-428436,325.703
292.3000,-426545,325.662
292.2000,-436147,325.617
292.1000,-440139,325.594
292.0000,-448452,325.556
291.9000,-449378,325.512
291.8000,-439280,325.476
291.7000,-432672,325.462
291.6000,-431512,325.428
291.5000,-432277,325.388
291.4000,-428343,325.371
291.3000,-425037,325.329
291.2000,-420234,325.27
291.1000,-419510,325.21
291.0000,-428476,325.162
290.9000,-439441,325.093
290.8000,-444842,325.005
290.7000,-450325,324.911
290.6000,-454213,324.81
290.5000,-457612,324.686
290.4000,-451433,324.566
290.3000,-444490,324.466
290.2000,-435834,324.347
290.1000,-441483,324.222
290.0000,-442505,324.117
289.9000,-437330,324.055
289.8000,-431862,324.007
289.7000,-434166,323.981
289.6000,-447329,323.994
289.5000,-460916,324.042
289.4000,-477723,324.103
289.3000,-480040,324.195
289.2000,-484088,324.297
289.1000,-487027,324.414
289.0000,-490808,324.519
288.9000,-489335,324.613
288.8000,-485784,324.696
288.7000,-482284,324.765
288.6000,-473559,324.811
288.5000,-473391,324.846
288.4000,-479252,324.86
288.3000,-481923,324.871
288.2000,-483470,324.871
288.1000,-485944,324.863
288.0000,-485403,324.85
287.9000,-481151,324.815
287.8000,-484710,324.794
287.7000,-489299,324.774
287.6000,-484616,324.754
287.5000,-482869,324.728
287.4000,-487776,324.71
287.3000,-490195,324.688
287.2000,-490467,324.674
287.1000,-496547,324.658
287.0000,-494931,324.632
286.9000,-491546,324.618
286.8000,-489812,324.606
286.7000,-495964,324.595
286.6000,-499600,324.564
286.5000,-508316,324.553
286.4000,-513575,324.551
286.3000,-523922,324.545
286.2000,-527596,324.546
286.1000,-529348,324.53
286.0000,-532291,324.528
285.9000,-530524,324.53
285.8000,-522442,324.531
285.7000,-516096,324.521
285.6000,-514394,324.497
285.5000,-513633,324.496
285.4000,-514431,324.505
285.3000,-521102,324.51
285.2000,-525732,324.502
285.1000,-526976,324.484
285.0000,-533613,324.487
284.9000,-535464,324.492
284.8000,-546557,324.497
284.7000,-544840,324.497
284.6000,-549689,324.478
284.5000,-546674,324.486
284.4000,-544763,324.501
284.3000,-540396,324.514
284.2000,-531983,324.517
284.1000,-529880,324.509
284.0000,-515401,324.506
283.9000,-509047,324.515
283.8000,-494620,324.53
283.7000,-486627,324.535
283.6000,-484831,324.527
283.5000,-487568,324.525
283.4000,-491853,324.518
283.3000,-493013,324.531
283.2000,-499889,324.551
283.1000,-503963,324.555
283.0000,-508418,324.55
282.9000,-516575,324.543
282.8000,-523269,324.542
282.7000,-533529,324.555
282.6000,-542291,324.569
282.5000,-551432,324.577
282.4000,-556583,324.572
282.3000,-562519,324.572
282.2000,-573144,324.57
282.1000,-585248,324.587
282.0000,-585478,324.606
281.9000,-579531,324.614
281.8000,-576638,324.619
281.7000,-577154,324.619
281.6000,-580461,324.621
281.5000,-580866,324.622
281.4000,-574107,324.645
281.3000,-562785,324.661
281.2000,-553767,324.666
281.1000,-551404,324.664
281.0000,-549573,324.664
280.9000,-552746,324.663
280.8000,-548481,324.664
280.7000,-543611,324.67
280.6000,-541556,324.679
280.5000,-541798,324.676
280.4000,-545179,324.674
280.3000,-549781,324.672
280.2000,-549060,324.669
280.1000,-539111,324.67
280.0000,-535700,324.669
279.9000,-541465,324.662
279.8000,-541906,324.645
279.7000,-539374,324.644
279.6000,-538106,324.641
279.5000,-534336,324.639
279.4000,-536878,324.638
279.3000,-538305,324.633
279.2000,-540546,324.633
279.1000,-536274,324.635
279.0000,-537698,324.637
278.9000,-548656,324.626
278.8000,-554730,324.63
278.7000,-566600,324.638
278.6000,-567869,324.652
278.5000,-571428,324.671
278.4000,-582345,324.684
278.3000,-593701,324.698
278.2000,-605540,324.714
278.1000,-607474,324.732
278.0000,-608067,324.735
277.9000,-604711,324.734
277.8000,-601710,324.73
277.7000,-598189,324.724
277.6000,-592784,324.736
277.5000,-587090,324.75
277.4000,-582379,324.764
277.3000,-574860,324.782
277.2000,-573929,324.798
277.1000,-578385,324.816
277.0000,-587001,324.833
276.9000,-599858,324.853
276.8000,-604218,324.865
276.7000,-598822,324.87
276.6000,-596038,324.872
276.5000,-600465,324.871
276.4000,-607617,324.869
276.3000,-617342,324.869
276.2000,-617808,324.87
276.1000,-617291,324.869
276.0000,-623506,324.881
275.9000,-632398,324.898
275.8000,-637257,324.92
275.7000,-635524,324.942
275.6000,-631699,324.969
275.5000,-627508,324.995
275.4000,-624106,325.024
275.3000,-624571,325.053
275.2000,-622197,325.072
275.1000,-619945,325.081
275.0000,-617555,325.085
274.9000,-619516,325.089
274.8000,-620414,325.097
274.7000,-619375,325.101
274.6000,-621533,325.103
274.5000,-620630,325.103
274.4000,-619803,325.105
274.3000,-617528,325.109
274.2000,-616599,325.113
274.1000,-621228,325.121
274.0000,-627253,325.125
273.9000,-633690,325.13
273.8000,-630775,325.138
273.7000,-628019,325.15
273.6000,-625808,325.165
273.5000,-628585,325.179
273.4000,-629052,325.199
273.3000,-630682,325.218
273.2000,-633002,325.236
273.1000,-628306,325.26
273.0000,-623407,325.282
272.9000,-625800,325.3
272.8000,-626076,325.316
272.7000,-624937,325.334
272.6000,-629469,325.349
272.5000,-634286,325.364
272.4000,-633028,325.377
272.3000,-630650,325.39
272.2000,-637803,325.407
272.1000,-645322,325.429
272.0000,-650368,325.451
271.9000,-653243,325.466
271.8000,-655134,325.477
271.7000,-659795,325.492
271.6000,-659069,325.512
271.5000,-650971,325.538
271.4000,-645896,325.559
271.3000,-645290,325.571
271.2000,-641775,325.579
271.1000,-637411,325.59
271.0000,-635039,325.605
270.9000,-634749,325.605
270.8000,-631264,325.6
270.7000,-635070,325.593
270.6000,-649191,325.581
270.5000,-653741,325.571
270.4000,-654222,325.565
270.3000,-664915,325.556
270.2000,-674642,325.548
270.1000,-677120,325.548
270.0000,-674752,325.559
269.9000,-678928,325.573
269.8000,-679420,325.588
269.7000,-681272,325.604
269.6000,-682330,325.621
269.5000,-680964,325.643
269.4000,-680250,325.654
269.3000,-679185,325.667
269.2000,-683209,325.683
269.1000,-684680,325.697
269.0000,-684588,325.708
268.9000,-684773,325.725
268.8000,-686941,325.745
268.7000,-689594,325.77
268.6000,-696779,325.802
268.5000,-698116,325.847
268.4000,-698777,325.893
268.3000,-703324,325.919
268.2000,-707645,325.95
268.1000,-708149,325.983
268.0000,-708979,326.015
267.9000,-698336,326.048
267.8000,-683509,326.088
267.7000,-671722,326.131
267.6000,-659078,326.173
267.5000,-655127,326.223
267.4000,-657923,326.26
267.3000,-656202,326.301
267.2000,-650206,326.35
267.1000,-654340,326.397
267.0000,-664216,326.444
266.9000,-676539,326.487
266.8000,-694310,326.531
266.7000,-697083,326.566
266.6000,-684624,326.618
266.5000,-676344,326.676
266.4000,-675212,326.725
266.3000,-677294,326.779
266.2000,-676661,326.83
266.1000,-674698,326.883
266.0000,-664259,326.913
265.9000,-662708,326.952
265.8000,-668566,327.008
265.7000,-676226,327.061
265.6000,-675759,327.122
265.5000,-678440,327.172
265.4000,-683455,327.213
265.3000,-681408,327.255
265.2000,-685616,327.311
265.1000,-687698,327.376
265.0000,-697584,327.432
264.9000,-702781,327.496
264.8000,-709294,327.533
264.7000,-711210,327.577
264.6000,-718221,327.637
264.5000,-727813,327.703
264.4000,-739099,327.774
264.3000,-745209,327.831
264.2000,-743587,327.892
264.1000,-735803,327.955
264.0000,-731373,328.027
263.9000,-731194,328.106
263.8000,-726842,328.17
263.7000,-718967,328.234
263.6000,-710026,328.304
263.5000,-707430,328.376
263.4000,-704387,328.453
263.3000,-702712,328.508
263.2000,-701644,328.572
263.1000,-711528,328.64
263.0000,-715864,328.718
262.9000,-724500,328.781
262.8000,-735212,328.838
262.7000,-735891,328.896
262.6000,-736730,328.961
262.5000,-738706,329.043
262.4000,-744926,329.111
262.3000,-741475,329.177
262.2000,-736542,329.233
262.1000,-729438,329.298
262.0000,-721336,329.357
261.9000,-716070,329.416
261.8000,-720499,329.474
261.7000,-721912,329.519
261.6000,-722070,329.574
261.5000,-721152,329.636
261.4000,-721421,329.712
261.3000,-731080,329.783
261.2000,-744668,329.866
261.1000,-750618,329.957
261.0000,-751927,330.051
260.9000,-754678,330.136
260.8000,-768605,330.219
260.7000,-777309,330.306
260.6000,-779043,330.381
260.5000,-774458,330.457
260.4000,-765139,330.541
260.3000,-756327,330.622
260.2000,-750580,330.689
260.1000,-749335,330.766
260.0000,-741375,330.86
259.9000,-738202,330.941
259.8000,-742956,331.022
259.7000,-750382,331.108
259.6000,-762854,331.179
259.5000,-770996,331.248
259.4000,-775985,331.323
259.3000,-783387,331.39
259.2000,-779981,331.461
259.1000,-775629,331.531
259.0000,-772864,331.595
258.9000,-772404,331.665
258.8000,-765916,331.746
258.7000,-761158,331.818
258.6000,-754888,331.901
258.5000,-744701,331.997
258.4000,-750269,332.078
258.3000,-762151,332.162
258.2000,-768428,332.256
258.1000,-773287,332.334
258.0000,-774245,332.409
257.9000,-780151,332.496
257.8000,-788663,332.571
257.7000,-803333,332.645
257.6000,-809170,332.738
257.5000,-812815,332.824
257.4000,-813386,332.916
257.3000,-810352,333.013
257.2000,-806283,333.119
257.1000,-806949,333.214
257.0000,-803587,333.306
256.9000,-797496,333.393
256.8000,-792416,333.453
256.7000,-790170,333.52
256.6000,-775622,333.594
256.5000,-769323,333.662
256.4000,-768824,333.728
256.3000,-772122,333.789
256.2000,-772971,333.863
256.1000,-773946,333.941
256.0000,-780640,334.024
255.9000,-784050,334.113
255.8000,-791152,334.183
255.7000,-796279,334.259
255.6000,-803815,334.341
255.5000,-796514,334.424
255.4000,-791899,334.51
255.3000,-789315,334.589
255.2000,-788127,334.671
255.1000,-789868,334.746
255.0000,-793018,334.831
254.9000,-792041,334.91
254.8000,-790537,334.993
254.7000,-798624,335.078
254.6000,-800102,335.153
254.5000,-807346,335.231
254.4000,-814085,335.302
254.3000,-813823,335.383
254.2000,-805693,335.456
254.1000,-810607,335.534
254.0000,-819623,335.605
253.9000,-822102,335.679
253.8000,-826070,335.75
253.7000,-829698,335.828
253.6000,-832182,335.9
253.5000,-833601,335.978
253.4000,-844636,336.053
253.3000,-851803,336.132
253.2000,-853881,336.203
253.1000,-858034,336.275
253.0000,-864850,336.35
252.9000,-868759,336.435
252.8000,-871378,336.521
252.7000,-872811,336.608
252.6000,-876306,336.68
252.5000,-874240,336.751
252.4000,-866390,336.825
252.3000,-854836,336.911
252.2000,-843136,336.991
252.1000,-828690,337.076
252.0000,-818337,337.159
251.9000,-818741,337.232
251.8000,-804657,337.329
251.7000,-791955,337.428
251.6000,-790421,337.528
251.5000,-797375,337.611
251.4000,-811410,337.698
251.3000,-826848,337.786
251.2000,-838107,337.866
251.1000,-838237,337.958
251.0000,-839284,338.047
250.9000,-850452,338.14
250.8000,-851027,338.228
250.7000,-849100,338.328
250.6000,-843846,338.427
250.5000,-835822,338.518
250.4000,-830944,338.612
250.3000,-836777,338.69
250.2000,-836221,338.776
250.1000,-828258,338.859
250.0000,-835827,338.94
249.9000,-838738,339.035
249.8000,-836302,339.126
249.7000,-837199,339.22
249.6000,-841145,339.304
249.5000,-840293,339.392
249.4000,-847893,339.492
249.3000,-862800,339.588
249.2000,-867361,339.685
249.1000,-867305,339.78
249.0000,-874724,339.869
248.9000,-884647,339.957
248.8000,-886065,340.059
248.7000,-884162,340.17
248.6000,-892039,340.271
248.5000,-892051,340.373
248.4000,-896515,340.468
248.3000,-901444,340.558
248.2000,-905332,340.659
248.1000,-908700,340.764
248.0000,-907875,340.86
247.9000,-912214,340.958
247.8000,-906158,341.057
247.7000,-895143,341.152
247.6000,-885871,341.254
247.5000,-885483,341.35
247.4000,-888029,341.43
247.3000,-891057,341.499
247.2000,-896453,341.575
247.1000,-907838,341.643
247.0000,-927675,341.704
246.9000,-947851,341.771
246.8000,-967380,341.835
246.7000,-973273,341.911
246.6000,-970455,341.993
246.5000,-966774,342.089
246.4000,-959130,342.185
246.3000,-954811,342.28
246.2000,-934122,342.384
246.1000,-921591,342.501
246.0000,-915575,342.619
245.9000,-914524,342.731
245.8000,-910376,342.842
245.7000,-905619,342.958
245.6000,-912193,343.069
245.5000,-912988,343.192
245.4000,-917634,343.319
245.3000,-923368,343.431
245.2000,-922683,343.549
245.1000,-925803,343.671
245.0000,-933160,343.792
244.9000,-943525,343.905
244.8000,-944875,344.022
244.7000,-939420,344.15
244.6000,-938698,344.272
244.5000,-936684,344.391
244.4000,-937113,344.5
244.3000,-943091,344.612
244.2000,-947199,344.734
244.1000,-948594,344.869
244.0000,-952674,345.002
243.9000,-952096,345.127
243.8000,-958197,345.245
243.7000,-966054,345.369
243.6000,-973394,345.5
243.5000,-964732,345.632
243.4000,-956003,345.772
243.3000,-954390,345.908
243.2000,-948862,346.044
243.1000,-954493,346.179
243.0000,-952718,346.322
242.9000,-950151,346.471
242.8000,-944884,346.62
242.7000,-943553,346.77
242.6000,-945857,346.909
242.5000,-943994,347.046
242.4000,-939559,347.194
242.3000,-938401,347.352
242.2000,-940801,347.507
242.1000,-951633,347.661
242.0000,-956962,347.816
241.9000,-963743,347.974
241.8000,-967542,348.133
241.7000,-975182,348.292
241.6000,-987343,348.45
241.5000,-1.00354E+006,348.606
241.4000,-1.00909E+006,348.767
241.3000,-1.00916E+006,348.931
241.2000,-1.00838E+006,349.096
241.1000,-1.00834E+006,349.27
241.0000,-1.00958E+006,349.451
240.9000,-1.00838E+006,349.635
240.8000,-993081,349.818
240.7000,-985689,349.993
240.6000,-983763,350.164
240.5000,-976343,350.338
240.4000,-974913,350.512
240.3000,-975618,350.686
240.2000,-979821,350.863
240.1000,-987604,351.042
240.0000,-1.00116E+006,351.224
239.9000,-1.01857E+006,351.412
239.8000,-1.02722E+006,351.604
239.7000,-1.03893E+006,351.796
239.6000,-1.04568E+006,351.995
239.5000,-1.0457E+006,352.207
239.4000,-1.04209E+006,352.422
239.3000,-1.04294E+006,352.637
239.2000,-1.05036E+006,352.848
239.1000,-1.05505E+006,353.064
239.0000,-1.0523E+006,353.287
238.9000,-1.04478E+006,353.514
238.8000,-1.04116E+006,353.738
238.7000,-1.05052E+006,353.957
238.6000,-1.06018E+006,354.16
238.5000,-1.07013E+006,354.359
238.4000,-1.06437E+006,354.57
238.3000,-1.06079E+006,354.787
238.2000,-1.06493E+006,355.008
238.1000,-1.0701E+006,355.23
238.0000,-1.08261E+006,355.454
237.9000,-1.0817E+006,355.681
237.8000,-1.07734E+006,355.908
237.7000,-1.08016E+006,356.139
237.6000,-1.09122E+006,356.372
237.5000,-1.0971E+006,356.605
237.4000,-1.08713E+006,356.842
237.3000,-1.0779E+006,357.079
237.2000,-1.07876E+006,357.319
237.1000,-1.07999E+006,357.549
237.0000,-1.08294E+006,357.782
236.9000,-1.08544E+006,358.02
236.8000,-1.07736E+006,358.26
236.7000,-1.0714E+006,358.502
236.6000,-1.07805E+006,358.733
236.5000,-1.08992E+006,358.962
236.4000,-1.09533E+006,359.194
236.3000,-1.10962E+006,359.437
236.2000,-1.12105E+006,359.692
236.1000,-1.12603E+006,359.944
236.0000,-1.13013E+006,360.201
235.9000,-1.13159E+006,360.462
235.8000,-1.1238E+006,360.729
235.7000,-1.1241E+006,360.99
235.6000,-1.1333E+006,361.249
235.5000,-1.13933E+006,361.512
235.4000,-1.13084E+006,361.778
235.3000,-1.1315E+006,362.041
235.2000,-1.13781E+006,362.309
235.1000,-1.13306E+006,362.582
235.0000,-1.14395E+006,362.852
234.9000,-1.14317E+006,363.123
234.8000,-1.13443E+006,363.401
234.7000,-1.11445E+006,363.685
234.6000,-1.11411E+006,363.957
234.5000,-1.12706E+006,364.232
234.4000,-1.12541E+006,364.513
234.3000,-1.12919E+006,364.783
234.2000,-1.12644E+006,365.054
234.1000,-1.12477E+006,365.334
234.0000,-1.1273E+006,365.609
233.9000,-1.13417E+006,365.886
233.8000,-1.15202E+006,366.163
233.7000,-1.15965E+006,366.44
233.6000,-1.16139E+006,366.72
233.5000,-1.16179E+006,367.005
233.4000,-1.17307E+006,367.281
233.3000,-1.18791E+006,367.563
233.2000,-1.19546E+006,367.857
233.1000,-1.20124E+006,368.145
233.0000,-1.19845E+006,368.433
232.9000,-1.18225E+006,368.722
232.8000,-1.1732E+006,369.01
232.7000,-1.16432E+006,369.303
232.6000,-1.16367E+006,369.599
232.5000,-1.16397E+006,369.899
232.4000,-1.17149E+006,370.188
232.3000,-1.17333E+006,370.486
232.2000,-1.16408E+006,370.783
232.1000,-1.16925E+006,371.081
232.0000,-1.18142E+006,371.374
231.9000,-1.20459E+006,371.662
231.8000,-1.22118E+006,371.946
231.7000,-1.23351E+006,372.23
231.6000,-1.24215E+006,372.519
231.5000,-1.24384E+006,372.802
231.4000,-1.26042E+006,373.083
231.3000,-1.27973E+006,373.363
231.2000,-1.28732E+006,373.657
231.1000,-1.27856E+006,373.95
231.0000,-1.27041E+006,374.24
230.9000,-1.26658E+006,374.53
230.8000,-1.25802E+006,374.817
230.7000,-1.2616E+006,375.114
230.6000,-1.26676E+006,375.411
230.5000,-1.27014E+006,375.712
230.4000,-1.27678E+006,376.01
230.3000,-1.27781E+006,376.317
230.2000,-1.28471E+006,376.626
230.1000,-1.2898E+006,376.938
230.0000,-1.29819E+006,377.245
229.9000,-1.30411E+006,377.542
229.8000,-1.3195E+006,377.833
229.7000,-1.33527E+006,378.117
229.6000,-1.34483E+006,378.401
229.5000,-1.34608E+006,378.672
229.4000,-1.36235E+006,378.935
229.3000,-1.37341E+006,379.199
229.2000,-1.38816E+006,379.46
229.1000,-1.39683E+006,379.722
229.0000,-1.402E+006,379.993
228.9000,-1.39095E+006,380.266
228.8000,-1.38435E+006,380.542
228.7000,-1.38038E+006,380.831
228.6000,-1.37823E+006,381.128
228.5000,-1.38688E+006,381.424
228.4000,-1.38513E+006,381.739
228.3000,-1.38912E+006,382.064
228.2000,-1.38416E+006,382.386
228.1000,-1.39412E+006,382.709
228.0000,-1.39449E+006,383.034
227.9000,-1.40155E+006,383.355
227.8000,-1.40236E+006,383.67
227.7000,-1.38983E+006,383.993
227.6000,-1.38477E+006,384.304
227.5000,-1.37935E+006,384.605
227.4000,-1.36971E+006,384.909
227.3000,-1.36227E+006,385.219
227.2000,-1.36785E+006,385.524
227.1000,-1.37155E+006,385.825
227.0000,-1.3621E+006,386.123
226.9000,-1.36554E+006,386.415
226.8000,-1.37022E+006,386.709
226.7000,-1.37191E+006,386.998
226.6000,-1.38158E+006,387.282
226.5000,-1.39827E+006,387.556
226.4000,-1.40759E+006,387.825
226.3000,-1.41518E+006,388.094
226.2000,-1.41913E+006,388.372
226.1000,-1.42843E+006,388.651
226.0000,-1.44087E+006,388.921
225.9000,-1.44683E+006,389.192
225.8000,-1.45114E+006,389.467
225.7000,-1.44582E+006,389.745
225.6000,-1.44149E+006,390.025
225.5000,-1.42902E+006,390.311
225.4000,-1.42832E+006,390.591
225.3000,-1.44143E+006,390.87
225.2000,-1.43606E+006,391.15
225.1000,-1.44494E+006,391.43
225.0000,-1.44217E+006,391.709
224.9000,-1.44883E+006,391.983
224.8000,-1.45375E+006,392.255
224.7000,-1.46171E+006,392.522
224.6000,-1.47496E+006,392.787
224.5000,-1.47616E+006,393.05
224.4000,-1.47835E+006,393.313
224.3000,-1.46496E+006,393.582
224.2000,-1.46139E+006,393.846
224.1000,-1.46136E+006,394.11
224.0000,-1.46355E+006,394.374
223.9000,-1.45667E+006,394.639
223.8000,-1.45801E+006,394.899
223.7000,-1.44935E+006,395.164
223.6000,-1.43399E+006,395.429
223.5000,-1.43188E+006,395.688
223.4000,-1.43062E+006,395.944
223.3000,-1.43284E+006,396.189
223.2000,-1.42701E+006,396.436
223.1000,-1.42195E+006,396.682
223.0000,-1.41253E+006,396.931
222.9000,-1.4215E+006,397.178
222.8000,-1.43772E+006,397.418
222.7000,-1.46174E+006,397.661
222.6000,-1.47768E+006,397.905
222.5000,-1.49954E+006,398.152
222.4000,-1.50436E+006,398.395
222.3000,-1.51426E+006,398.637
222.2000,-1.52807E+006,398.879
222.1000,-1.53355E+006,399.118
222.0000,-1.52354E+006,399.364
221.9000,-1.51217E+006,399.6
221.8000,-1.51683E+006,399.832
221.7000,-1.50742E+006,400.071
221.6000,-1.51239E+006,400.31
221.5000,-1.51636E+006,400.55
221.4000,-1.51493E+006,400.784
221.3000,-1.49741E+006,401.022
221.2000,-1.48177E+006,401.259
221.1000,-1.47848E+006,401.495
221.0000,-1.47847E+006,401.725
220.9000,-1.46793E+006,401.955
220.8000,-1.4656E+006,402.185
220.7000,-1.4507E+006,402.415
220.6000,-1.44838E+006,402.644
220.5000,-1.4685E+006,402.87
220.4000,-1.49759E+006,403.09
220.3000,-1.51639E+006,403.311
220.2000,-1.50691E+006,403.543
220.1000,-1.49875E+006,403.769
220.0000,-1.49642E+006,403.992
219.9000,-1.51793E+006,404.212
219.8000,-1.52133E+006,404.433
219.7000,-1.50751E+006,404.656
219.6000,-1.49086E+006,404.875
219.5000,-1.47766E+006,405.094
219.4000,-1.46759E+006,405.312
219.3000,-1.47008E+006,405.529
219.2000,-1.4809E+006,405.749
219.1000,-1.46509E+006,405.965
219.0000,-1.45647E+006,406.185
218.9000,-1.45422E+006,406.399
218.8000,-1.44147E+006,406.62
218.7000,-1.44826E+006,406.83
218.6000,-1.45918E+006,407.044
218.5000,-1.47367E+006,407.254
218.4000,-1.47723E+006,407.466
218.3000,-1.48834E+006,407.67
218.2000,-1.50024E+006,407.88
218.1000,-1.5194E+006,408.085
218.0000,-1.54361E+006,408.29
217.9000,-1.55983E+006,408.496
217.8000,-1.5566E+006,408.698
217.7000,-1.54465E+006,408.908
217.6000,-1.52053E+006,409.121
217.5000,-1.50641E+006,409.337
217.4000,-1.50138E+006,409.544
217.3000,-1.49256E+006,409.756
217.2000,-1.48054E+006,409.967
217.1000,-1.45688E+006,410.181
217.0000,-1.42735E+006,410.397
216.9000,-1.41592E+006,410.607
216.8000,-1.41607E+006,410.811
216.7000,-1.43727E+006,411.005
216.6000,-1.44689E+006,411.208
216.5000,-1.44602E+006,411.409
216.4000,-1.43232E+006,411.607
216.3000,-1.44193E+006,411.802
216.2000,-1.47115E+006,411.998
216.1000,-1.48855E+006,412.196
216.0000,-1.51016E+006,412.392
215.9000,-1.51781E+006,412.591
215.8000,-1.50442E+006,412.793
215.7000,-1.49949E+006,413.001
215.6000,-1.51343E+006,413.207
215.5000,-1.50037E+006,413.42
215.4000,-1.47953E+006,413.631
215.3000,-1.4869E+006,413.834
215.2000,-1.49545E+006,414.034
215.1000,-1.48824E+006,414.246
215.0000,-1.50223E+006,414.457
214.9000,-1.51141E+006,414.666
214.8000,-1.50862E+006,414.873
214.7000,-1.51011E+006,415.081
214.6000,-1.524E+006,415.282
214.5000,-1.53029E+006,415.492
214.4000,-1.52047E+006,415.704
214.3000,-1.51011E+006,415.917
214.2000,-1.50123E+006,416.124
214.1000,-1.49145E+006,416.333
214.0000,-1.51355E+006,416.536
213.9000,-1.5319E+006,416.744
213.8000,-1.56617E+006,416.949
213.7000,-1.56357E+006,417.163
213.6000,-1.56634E+006,417.383
213.5000,-1.58025E+006,417.6
213.4000,-1.59595E+006,417.817
213.3000,-1.59301E+006,418.044
213.2000,-1.58221E+006,418.272
213.1000,-1.56518E+006,418.505
213.0000,-1.5425E+006,418.739
212.9000,-1.52637E+006,418.975
212.8000,-1.52324E+006,419.202
212.7000,-1.52643E+006,419.43
212.6000,-1.52515E+006,419.659
212.5000,-1.51777E+006,419.892
212.4000,-1.5305E+006,420.121
212.3000,-1.52842E+006,420.349
212.2000,-1.53029E+006,420.58
212.1000,-1.52744E+006,420.814
212.0000,-1.53989E+006,421.05
211.9000,-1.55459E+006,421.289
211.8000,-1.55638E+006,421.528
211.7000,-1.56385E+006,421.769
211.6000,-1.54868E+006,422.02
211.5000,-1.51665E+006,422.276
211.4000,-1.51624E+006,422.527
211.3000,-1.51483E+006,422.781
211.2000,-1.5242E+006,423.03
211.1000,-1.51405E+006,423.285
211.0000,-1.50436E+006,423.546
210.9000,-1.52103E+006,423.799
210.8000,-1.53338E+006,424.05
210.7000,-1.56161E+006,424.305
210.6000,-1.59038E+006,424.558
210.5000,-1.60545E+006,424.818
210.4000,-1.6077E+006,425.081
210.3000,-1.63567E+006,425.344
210.2000,-1.67411E+006,425.599
210.1000,-1.68312E+006,425.867
210.0000,-1.69567E+006,426.133
209.9000,-1.69138E+006,426.403
209.8000,-1.67349E+006,426.678
209.7000,-1.65827E+006,426.957
209.6000,-1.65347E+006,427.231
209.5000,-1.63293E+006,427.516
209.4000,-1.61119E+006,427.805
209.3000,-1.59597E+006,428.09
209.2000,-1.5909E+006,428.378
209.1000,-1.60113E+006,428.666
209.0000,-1.63231E+006,428.951
208.9000,-1.66189E+006,429.239
208.8000,-1.65997E+006,429.536
208.7000,-1.65425E+006,429.83
208.6000,-1.63391E+006,430.135
208.5000,-1.61701E+006,430.442
208.4000,-1.62142E+006,430.745
208.3000,-1.61182E+006,431.053
208.2000,-1.60396E+006,431.362
208.1000,-1.6056E+006,431.668
208.0000,-1.6224E+006,431.972
207.9000,-1.6307E+006,432.282
207.8000,-1.63437E+006,432.593
207.7000,-1.64431E+006,432.899
207.6000,-1.63019E+006,433.213
207.5000,-1.6296E+006,433.522
207.4000,-1.62546E+006,433.83
207.3000,-1.60581E+006,434.143
207.2000,-1.58775E+006,434.456
207.1000,-1.57652E+006,434.764
207.0000,-1.59411E+006,435.07
206.9000,-1.60983E+006,435.377
206.8000,-1.61499E+006,435.692
206.7000,-1.61875E+006,436.008
206.6000,-1.60941E+006,436.329
206.5000,-1.60366E+006,436.652
206.4000,-1.59925E+006,436.974
206.3000,-1.60298E+006,437.302
206.2000,-1.60656E+006,437.626
206.1000,-1.61278E+006,437.944
206.0000,-1.611E+006,438.264
205.9000,-1.60097E+006,438.589
205.8000,-1.56805E+006,438.921
205.7000,-1.56205E+006,439.248
205.6000,-1.56381E+006,439.575
205.5000,-1.5736E+006,439.904
205.4000,-1.56796E+006,440.237
205.3000,-1.56484E+006,440.578
205.2000,-1.55291E+006,440.928
205.1000,-1.53868E+006,441.281
205.0000,-1.55578E+006,441.626
204.9000,-1.5636E+006,441.981
204.8000,-1.56746E+006,442.339
204.7000,-1.55425E+006,442.706
204.6000,-1.55481E+006,443.07
204.5000,-1.54935E+006,443.44
204.4000,-1.53202E+006,443.811
204.3000,-1.54128E+006,444.18
204.2000,-1.53272E+006,444.559
204.1000,-1.51546E+006,444.938
204.0000,-1.51646E+006,445.319
203.9000,-1.50805E+006,445.702
203.8000,-1.49974E+006,446.089
203.7000,-1.47986E+006,446.482
203.6000,-1.47843E+006,446.877
203.5000,-1.47516E+006,447.273
203.4000,-1.47338E+006,447.675
203.3000,-1.4774E+006,448.081
203.2000,-1.46425E+006,448.495
203.1000,-1.44863E+006,448.918
203.0000,-1.44501E+006,449.342
202.9000,-1.43991E+006,449.773
202.8000,-1.43139E+006,450.204
202.7000,-1.43852E+006,450.638
202.6000,-1.42834E+006,451.08
202.5000,-1.41025E+006,451.527
202.4000,-1.40154E+006,451.976
202.3000,-1.40435E+006,452.429
202.2000,-1.38931E+006,452.891
202.1000,-1.39039E+006,453.353
202.0000,-1.38423E+006,453.823
201.9000,-1.36363E+006,454.303
201.8000,-1.34541E+006,454.792
201.7000,-1.34656E+006,455.291
201.6000,-1.36502E+006,455.79
201.5000,-1.38366E+006,456.292
201.4000,-1.37588E+006,456.805
201.3000,-1.40018E+006,457.319
201.2000,-1.38238E+006,457.852
201.1000,-1.36637E+006,458.392
201.0000,-1.3426E+006,458.936
200.9000,-1.33161E+006,459.486
200.8000,-1.32471E+006,460.043
200.7000,-1.31375E+006,460.612
200.6000,-1.31106E+006,461.193
200.5000,-1.27364E+006,461.796
200.4000,-1.22888E+006,462.414
200.3000,-1.21818E+006,463.033
200.2000,-1.21881E+006,463.662
200.1000,-1.22575E+006,464.298
200.0000,-1.21658E+006,464.943
199.9000,-1.21323E+006,465.595
199.8000,-1.21729E+006,466.251
199.7000,-1.2281E+006,466.907
199.6000,-1.27507E+006,467.563
199.5000,-1.29506E+006,468.237
199.4000,-1.30183E+006,468.927
199.3000,-1.28559E+006,469.632
199.2000,-1.23602E+006,470.36
199.1000,-1.17521E+006,471.109
199.0000,-1.13974E+006,471.87
198.9000,-1.09954E+006,472.662
198.8000,-1.03248E+006,473.478
198.7000,-991881,474.312
198.6000,-960578,475.166
198.5000,-973383,476.041
198.4000,-1.01168E+006,476.93
198.3000,-1.03887E+006,477.844
198.2000,-1.06663E+006,478.793
198.1000,-1.09302E+006,479.774
198.0000,-1.12012E+006,480.792
197.9000,-1.12543E+006,481.843
197.8000,-1.14826E+006,482.924
197.7000,-1.14537E+006,484.047
197.6000,-1.11133E+006,485.203
197.5000,-1.10298E+006,486.379
197.4000,-1.0547E+006,487.574
197.3000,-1.00442E+006,488.777
197.2000,-970580,489.969
197.1000,-974963,491.144
197.0000,-952020,492.32
196.9000,-912769,493.497
196.8000,-917794,494.677
196.7000,-925115,495.879
196.6000,-928486,497.118
196.5000,-951023,498.397
196.4000,-970252,499.74
196.3000,-913790,501.176
196.2000,-875044,502.688
196.1000,-844435,504.273
196.0000,-840423,505.937
195.9000,-828132,507.698
195.8000,-800450,509.57
195.7000,-803787,511.556
195.6000,-781743,513.67
195.5000,-789264,515.913
195.4000,-820329,518.275
195.3000,-844868,520.751
195.2000,-848480,523.324
195.1000,-819984,525.975
195.0000,-802402,528.628
194.9000,-770951,531.231
194.8000,-760629,533.732
194.7000,-740353,536.12
194.6000,-686741,538.412
194.5000,-635270,540.609
194.4000,-614420,542.747
194.3000,-622272,544.825
194.2000,-675066,546.928
194.1000,-710223,549.139
194.0000,-727750,551.525
193.9000,-735686,554.137
193.8000,-764160,556.989
193.7000,-867420,560.121
193.6000,-868802,563.576
193.5000,-802186,567.407
193.4000,-734552,571.616
193.3000,-609770,576.24
193.2000,-543056,581.225
193.1000,-515061,586.568
193.0000,-465620,592.225
192.9000,-355035,598.12
192.8000,-325965,604.13
192.7000,-424767,610.099
192.6000,-511155,615.851
192.5000,-566802,621.224
192.4000,-641986,626.172
192.3000,-623680,630.728
192.2000,-667260,634.863
192.1000,-723240,638.62
192.0000,-668350,642.131
191.9000,-618166,645.546
191.8000,-595006,649.13
191.7000,-556796,653.167
191.6000,-470287,657.801
191.5000,-499520,663.02
191.4000,-527439,668.901
191.3000,-467281,675.579
191.2000,-362551,683.089
191.1000,-47900.7,691.483
191.0000,329768,700.62
190.9000,540351,710.29
190.8000,696134,720.41
190.7000,718257,730.9
190.6000,849493,741.615
190.5000,858704,752.307
190.4000,676520,762.61
190.3000,586830,772.365
190.2000,431222,781.397
190.1000,486660,789.751
190.0000,250000,797.326

##### Extended Information
[Comments]
Sample name,ACE2_D2_0.8uM
Comment
User
Division
Company,CSIR-IMTECH

[Detailed Information]
Creation date,2/26/2024 5:19 PM

Data array type,Linear data array * 2
Horizontal axis,Wavelength [nm]
Vertical axis(1),Mol. Ellip.
Vertical axis(2),HT [V]
Start,350 nm
End,190 nm
Data interval,0.1 nm
Data points,1601    

[Measurement Information]
Instrument Name,JASCO CD
Model Name,J-815
Serial No.,B063061168

Accessory,PTC-423S
Accessory S/N,C013945-01
  Temperature,37.03 C
  Control Sonsor,Cell
  Monitor Sensor,Cell
  Start Mode,Start immediately
  Cell Length,10 mm

Measurement date,2/26/2024 5:17 PM

Photometric Mode,CD, HT
Measure Range,350 - 190 nm
Data pitch,0.1 nm
Sensitivity,Standard
D.I.T.,1 sec
Bandwidth,1.00 nm
Start Mode,Immediately
Scanning Speed,50 nm/min
Baseline Correction,None
Shutter Control,Manual
CD Detector,PMT
PMT Voltage,Auto
Accumulations,3
Concentration,0.8 umol/L

