TITLE,D2_0.8uM
DATA TYPE,
ORIGIN,JASCO
OWNER,
DATE,24/03/11
TIME,14:05:25
SPECTROMETER/DATA SYSTEM,
LOCALE,1033
RESOLUTION,
DELTAX,-0.1
XUNITS,NANOMETERS
YUNITS,Mol. Ellip.
Y2UNITS,HT [V]
FIRSTX,  350.0000
LASTX,  190.0000
NPOINTS,    1601
FIRSTY,761258.37500
MAXY,1458829.00000
MINY,-1894142.37500
XYDATA
350.0000,761258,472.823
349.9000,879400,472.248
349.8000,894057,471.38
349.7000,1.04415E+006,470.502
349.6000,967489,469.847
349.5000,1.01147E+006,469.255
349.4000,1.11332E+006,468.365
349.3000,970132,467.727
349.2000,1.03792E+006,467.197
349.1000,1.01364E+006,466.359
349.0000,916138,465.738
348.9000,630460,465.185
348.8000,450058,464.335
348.7000,401455,463.488
348.6000,275525,462.875
348.5000,323525,462.336
348.4000,436262,461.477
348.3000,674396,460.84
348.2000,855094,460.277
348.1000,945919,459.435
348.0000,748786,458.805
347.9000,628852,458.251
347.8000,632869,457.403
347.7000,590978,456.54
347.6000,93563.7,455.905
347.5000,-256705,455.372
347.4000,-230824,454.563
347.3000,-62709.9,453.957
347.2000,145419,453.434
347.1000,421728,452.683
347.0000,636155,452.147
346.9000,620885,451.689
346.8000,1.01095E+006,450.961
346.7000,1.45883E+006,450.225
346.6000,1.27225E+006,449.671
346.5000,1.17252E+006,448.959
346.4000,1.1691E+006,448.232
346.3000,1.09311E+006,447.657
346.2000,930105,446.864
346.1000,787830,446.054
346.0000,790441,445.46
345.9000,761730,444.941
345.8000,766589,444.158
345.7000,828721,443.571
345.6000,840988,443.061
345.5000,865868,442.313
345.4000,593837,441.774
345.3000,597955,441.332
345.2000,603813,440.656
345.1000,492933,439.97
345.0000,205321,439.467
344.9000,42244.6,438.807
344.8000,74423,438.134
344.7000,68421.4,437.628
344.6000,148233,436.987
344.5000,186259,436.328
344.4000,33378.9,435.822
344.3000,-142508,435.142
344.2000,66187,434.459
344.1000,293696,433.945
344.0000,344876,433.301
343.9000,155885,432.65
343.8000,125951,432.168
343.7000,62108.7,431.75
343.6000,233100,431.089
343.5000,434622,430.613
343.4000,439721,430.212
343.3000,272557,429.593
343.2000,190512,429.132
343.1000,70061,428.721
343.0000,-141489,428.105
342.9000,-235526,427.473
342.8000,-342530,427.016
342.7000,-535263,426.421
342.6000,-682209,425.808
342.5000,-610374,425.345
342.4000,-560070,424.742
342.3000,-454638,424.134
342.2000,-77333.4,423.678
342.1000,229011,423.105
342.0000,403223,422.532
341.9000,493610,422.118
341.8000,652541,421.569
341.7000,443170,421.01
341.6000,221530,420.603
341.5000,98245.7,420.086
341.4000,-167487,419.557
341.3000,-455732,419.156
341.2000,-521984,418.609
341.1000,-686877,418.044
341.0000,-832157,417.623
340.9000,-874459,417.072
340.8000,-914094,416.509
340.7000,-918414,416.073
340.6000,-784123,415.523
340.5000,-512569,414.972
340.4000,-304722,414.565
340.3000,-117160,414.044
340.2000,-51471.1,413.519
340.1000,60883.4,413.142
340.0000,353345,412.667
339.9000,646863,412.186
339.8000,662388,411.827
339.7000,598824,411.368
339.6000,342516,410.896
339.5000,65603.3,410.553
339.4000,89948.9,410.087
339.3000,156528,409.595
339.2000,58325.4,409.059
339.1000,-58402.9,408.569
339.0000,-234501,408.063
338.9000,-313503,407.509
338.8000,-300541,407.006
338.7000,-287692,406.495
338.6000,-275583,405.939
338.5000,-280000,405.452
338.4000,-271990,405.094
338.3000,-456373,404.664
338.2000,-583412,404.238
338.1000,-509380,403.938
338.0000,-512647,403.519
337.9000,-383635,403.101
337.8000,-340262,402.815
337.7000,-445350,402.436
337.6000,-631038,402.041
337.5000,-727037,401.729
337.4000,-686238,401.314
337.3000,-620861,400.879
337.2000,-658155,400.403
337.1000,-661210,399.981
337.0000,-749302,399.547
336.9000,-724038,399.082
336.8000,-736333,398.671
336.7000,-649624,398.265
336.6000,-530971,397.829
336.5000,-516125,397.441
336.4000,-468613,397.174
336.3000,-437224,396.788
336.2000,-372041,396.392
336.1000,-253955,396.101
336.0000,-171359,395.737
335.9000,-116164,395.35
335.8000,-84880.8,394.919
335.7000,-84663.2,394.527
335.6000,-138394,394.123
335.5000,-159264,393.715
335.4000,-102522,393.369
335.3000,-57772.6,393.021
335.2000,-212483,392.638
335.1000,-262457,392.301
335.0000,-316157,392.078
334.9000,-381141,391.763
334.8000,-470594,391.436
334.7000,-424214,391.076
334.6000,-465201,390.753
334.5000,-498393,390.416
334.4000,-508828,390.031
334.3000,-402636,389.679
334.2000,-346617,389.311
334.1000,-210446,388.913
334.0000,-136265,388.56
333.9000,-153398,388.301
333.8000,-172785,387.968
333.7000,-331660,387.628
333.6000,-416006,387.257
333.5000,-509532,386.935
333.4000,-612384,386.61
333.3000,-736046,386.266
333.2000,-765569,385.968
333.1000,-729081,385.665
333.0000,-712987,385.342
332.9000,-597135,385.051
332.8000,-462549,384.716
332.7000,-363479,384.416
332.6000,-333526,384.104
332.5000,-342035,383.763
332.4000,-289483,383.465
332.3000,-288056,383.162
332.2000,-272920,382.813
332.1000,-331769,382.494
332.0000,-351064,382.161
331.9000,-362686,381.878
331.8000,-271403,381.596
331.7000,-136804,381.294
331.6000,-117033,381.015
331.5000,-227035,380.606
331.4000,-312302,380.285
331.3000,-391875,380
331.2000,-415032,379.686
331.1000,-556030,379.404
331.0000,-623657,379.116
330.9000,-681602,378.809
330.8000,-755466,378.531
330.7000,-810493,378.219
330.6000,-723489,377.952
330.5000,-684401,377.687
330.4000,-684237,377.407
330.3000,-628127,377.16
330.2000,-685677,376.802
330.1000,-712060,376.511
330.0000,-688988,376.251
329.9000,-542088,375.974
329.8000,-520205,375.724
329.7000,-533185,375.37
329.6000,-474140,375.083
329.5000,-450848,374.826
329.4000,-289717,374.54
329.3000,-139836,374.285
329.2000,-152246,373.922
329.1000,-218447,373.636
329.0000,-268624,373.392
328.9000,-181155,373.14
328.8000,-181944,372.918
328.7000,-177132,372.597
328.6000,-207294,372.353
328.5000,-247617,372.146
328.4000,-200575,371.912
328.3000,-198728,371.702
328.2000,-56074.4,371.418
328.1000,-69671,371.188
328.0000,-152695,370.978
327.9000,-198502,370.704
327.8000,-352877,370.456
327.7000,-521800,370.187
327.6000,-593492,369.997
327.5000,-631692,369.848
327.4000,-856222,369.584
327.3000,-1.00125E+006,369.338
327.2000,-1.02159E+006,369.044
327.1000,-962350,368.843
327.0000,-965201,368.689
326.9000,-909192,368.434
326.8000,-953248,368.166
326.7000,-955210,367.855
326.6000,-848954,367.663
326.5000,-788389,367.527
326.4000,-779669,367.269
326.3000,-689588,367.021
326.2000,-581741,366.78
326.1000,-566099,366.621
326.0000,-518881,366.312
325.9000,-426124,366.028
325.8000,-355999,365.757
325.7000,-247251,365.529
325.6000,-140442,365.415
325.5000,-266459,365.143
325.4000,-284199,364.864
325.3000,-158019,364.573
325.2000,2759.02,364.447
325.1000,-64815.6,364.384
325.0000,-237642,364.132
324.9000,-409534,363.844
324.8000,-584204,363.549
324.7000,-619804,363.413
324.6000,-600251,363.356
324.5000,-748937,363.1
324.4000,-799921,362.824
324.3000,-672356,362.566
324.2000,-478954,362.441
324.1000,-358969,362.182
324.0000,-259890,361.908
323.9000,-91902.8,361.616
323.8000,-3223.6,361.361
323.7000,90971.6,361.24
323.6000,116687,360.982
323.5000,-24898.1,360.691
323.4000,-129498,360.413
323.3000,-192541,360.282
323.2000,-272574,360.216
323.1000,-336867,359.976
323.0000,-426205,359.701
322.9000,-511127,359.431
322.8000,-527633,359.308
322.7000,-461589,359.065
322.6000,-426644,358.786
322.5000,-442654,358.514
322.4000,-399816,358.244
322.3000,-403090,358.087
322.2000,-378391,357.784
322.1000,-439810,357.447
322.0000,-479725,357.127
321.9000,-453900,356.95
321.8000,-456195,356.677
321.7000,-443574,356.383
321.6000,-417274,356.079
321.5000,-452405,355.821
321.4000,-588779,355.725
321.3000,-569837,355.571
321.2000,-572880,355.4
321.1000,-603292,355.229
321.0000,-604335,355.199
320.9000,-589256,355.078
320.8000,-566023,354.951
320.7000,-576600,354.816
320.6000,-526033,354.659
320.5000,-542688,354.603
320.4000,-526273,354.416
320.3000,-470756,354.208
320.2000,-506747,354.007
320.1000,-588382,353.914
320.0000,-730160,353.75
319.9000,-814340,353.571
319.8000,-838228,353.376
319.7000,-736117,353.18
319.6000,-647147,352.974
319.5000,-661059,352.83
319.4000,-691547,352.663
319.3000,-669106,352.468
319.2000,-635576,352.356
319.1000,-596272,352.167
319.0000,-529358,351.972
318.9000,-412447,351.751
318.8000,-476394,351.616
318.7000,-528348,351.404
318.6000,-566711,351.187
318.5000,-544720,350.979
318.4000,-557495,350.774
318.3000,-554596,350.569
318.2000,-581685,350.411
318.1000,-686874,350.269
318.0000,-769390,350.102
317.9000,-780551,350.024
317.8000,-729554,349.907
317.7000,-777564,349.787
317.6000,-794018,349.626
317.5000,-783481,349.524
317.4000,-835074,349.346
317.3000,-877264,349.159
317.2000,-902399,348.966
317.1000,-968946,348.778
317.0000,-919736,348.533
316.9000,-824632,348.315
316.8000,-737117,348.118
316.7000,-764170,347.926
316.6000,-652753,347.744
316.5000,-492063,347.596
316.4000,-380927,347.438
316.3000,-344171,347.279
316.2000,-372475,347.124
316.1000,-548156,347.008
316.0000,-695927,346.896
315.9000,-724783,346.748
315.8000,-760258,346.647
315.7000,-833625,346.478
315.6000,-971914,346.328
315.5000,-999852,346.153
315.4000,-1.0474E+006,346.037
315.3000,-1.0428E+006,345.839
315.2000,-1.02607E+006,345.633
315.1000,-1.03024E+006,345.44
315.0000,-1.05011E+006,345.254
314.9000,-989230,345.083
314.8000,-917176,344.94
314.7000,-878538,344.791
314.6000,-803394,344.648
314.5000,-767245,344.507
314.4000,-710036,344.405
314.3000,-775991,344.277
314.2000,-795592,344.153
314.1000,-859204,343.994
314.0000,-889413,343.854
313.9000,-896978,343.696
313.8000,-956495,343.54
313.7000,-994518,343.33
313.6000,-979572,343.142
313.5000,-920017,342.966
313.4000,-825025,342.797
313.3000,-639975,342.642
313.2000,-598197,342.503
313.1000,-586600,342.351
313.0000,-530330,342.21
312.9000,-411900,342.088
312.8000,-352404,342
312.7000,-320377,341.879
312.6000,-358962,341.757
312.5000,-431800,341.597
312.4000,-461830,341.447
312.3000,-499064,341.274
312.2000,-458507,341.11
312.1000,-406987,340.892
312.0000,-494928,340.682
311.9000,-526888,340.486
311.8000,-464540,340.272
311.7000,-394280,340.102
311.6000,-371470,339.91
311.5000,-395158,339.757
311.4000,-458379,339.58
311.3000,-548848,339.471
311.2000,-524298,339.36
311.1000,-470789,339.271
311.0000,-508787,339.168
310.9000,-515298,339.08
310.8000,-614492,338.975
310.7000,-647649,338.889
310.6000,-617160,338.766
310.5000,-605808,338.653
310.4000,-708063,338.542
310.3000,-784601,338.443
310.2000,-801832,338.354
310.1000,-788287,338.278
310.0000,-836274,338.188
309.9000,-831906,338.113
309.8000,-798433,338.055
309.7000,-778171,337.961
309.6000,-801581,337.886
309.5000,-782440,337.783
309.4000,-766096,337.695
309.3000,-822464,337.545
309.2000,-821477,337.43
309.1000,-857027,337.275
309.0000,-929503,337.137
308.9000,-951305,337.011
308.8000,-939041,336.902
308.7000,-861563,336.805
308.6000,-762435,336.718
308.5000,-594498,336.62
308.4000,-486208,336.52
308.3000,-418135,336.457
308.2000,-360554,336.341
308.1000,-313522,336.255
308.0000,-217956,336.166
307.9000,-202682,336.084
307.8000,-318609,335.928
307.7000,-521899,335.811
307.6000,-620809,335.695
307.5000,-726278,335.528
307.4000,-790764,335.408
307.3000,-839313,335.307
307.2000,-941875,335.216
307.1000,-973247,335.064
307.0000,-1.01887E+006,334.964
306.9000,-993170,334.89
306.8000,-945111,334.838
306.7000,-899142,334.764
306.6000,-853729,334.682
306.5000,-860272,334.603
306.4000,-891500,334.461
306.3000,-963006,334.363
306.2000,-912849,334.259
306.1000,-805036,334.157
306.0000,-751808,334.003
305.9000,-779815,333.897
305.8000,-799674,333.824
305.7000,-830765,333.701
305.6000,-805514,333.621
305.5000,-787961,333.559
305.4000,-871057,333.515
305.3000,-1.00748E+006,333.413
305.2000,-1.09811E+006,333.344
305.1000,-1.10328E+006,333.278
305.0000,-1.10275E+006,333.152
304.9000,-1.05564E+006,333.07
304.8000,-982737,332.979
304.7000,-1.0086E+006,332.891
304.6000,-979351,332.762
304.5000,-896569,332.67
304.4000,-887042,332.6
304.3000,-904916,332.486
304.2000,-899769,332.422
304.1000,-912918,332.372
304.0000,-882850,332.342
303.9000,-805543,332.26
303.8000,-776644,332.189
303.7000,-811664,332.14
303.6000,-803379,332.034
303.5000,-756266,331.967
303.4000,-725915,331.889
303.3000,-677010,331.783
303.2000,-711501,331.676
303.1000,-719838,331.6
303.0000,-653687,331.56
302.9000,-607627,331.47
302.8000,-508887,331.408
302.7000,-485929,331.362
302.6000,-477305,331.279
302.5000,-529051,331.228
302.4000,-521939,331.175
302.3000,-536235,331.077
302.2000,-541527,330.981
302.1000,-544011,330.895
302.0000,-569078,330.838
301.9000,-606388,330.751
301.8000,-630555,330.686
301.7000,-569481,330.643
301.6000,-542430,330.56
301.5000,-522519,330.515
301.4000,-578914,330.47
301.3000,-666551,330.395
301.2000,-710362,330.327
301.1000,-695333,330.267
301.0000,-645103,330.232
300.9000,-705574,330.154
300.8000,-775068,330.075
300.7000,-875734,330.015
300.6000,-927845,329.937
300.5000,-797056,329.88
300.4000,-727204,329.84
300.3000,-756788,329.767
300.2000,-873929,329.694
300.1000,-991541,329.632
300.0000,-1.0894E+006,329.569
299.9000,-1.17431E+006,329.515
299.8000,-1.15791E+006,329.462
299.7000,-1.19419E+006,329.396
299.6000,-1.27388E+006,329.335
299.5000,-1.31882E+006,329.272
299.4000,-1.32999E+006,329.224
299.3000,-1.28734E+006,329.16
299.2000,-1.28575E+006,329.11
299.1000,-1.18138E+006,329.074
299.0000,-1.2078E+006,329.01
298.9000,-1.22938E+006,328.958
298.8000,-1.24402E+006,328.917
298.7000,-1.22971E+006,328.863
298.6000,-1.26401E+006,328.815
298.5000,-1.34936E+006,328.763
298.4000,-1.3088E+006,328.706
298.3000,-1.30448E+006,328.654
298.2000,-1.21958E+006,328.603
298.1000,-1.16948E+006,328.551
298.0000,-1.13827E+006,328.503
297.9000,-1.09872E+006,328.461
297.8000,-1.02963E+006,328.396
297.7000,-957233,328.347
297.6000,-956827,328.307
297.5000,-1.05145E+006,328.241
297.4000,-1.11359E+006,328.196
297.3000,-1.10877E+006,328.155
297.2000,-1.05886E+006,328.093
297.1000,-1.10419E+006,328.042
297.0000,-1.1367E+006,327.995
296.9000,-1.15722E+006,327.932
296.8000,-1.11051E+006,327.882
296.7000,-1.00262E+006,327.843
296.6000,-935735,327.811
296.5000,-915571,327.768
296.4000,-973609,327.731
296.3000,-971393,327.705
296.2000,-896978,327.673
296.1000,-854613,327.641
296.0000,-897243,327.616
295.9000,-883204,327.582
295.8000,-879449,327.528
295.7000,-890486,327.491
295.6000,-883333,327.457
295.5000,-944206,327.401
295.4000,-1.02518E+006,327.337
295.3000,-1.1281E+006,327.303
295.2000,-1.0853E+006,327.253
295.1000,-1.15477E+006,327.193
295.0000,-1.1321E+006,327.164
294.9000,-1.0868E+006,327.117
294.8000,-1.13007E+006,327.057
294.7000,-1.10569E+006,327.025
294.6000,-971715,326.995
294.5000,-890438,326.944
294.4000,-883833,326.908
294.3000,-806640,326.876
294.2000,-778106,326.829
294.1000,-778163,326.797
294.0000,-758064,326.771
293.9000,-771733,326.726
293.8000,-878344,326.695
293.7000,-890465,326.669
293.6000,-855132,326.625
293.5000,-809366,326.572
293.4000,-819987,326.54
293.3000,-861220,326.49
293.2000,-831616,326.436
293.1000,-777926,326.407
293.0000,-720428,326.362
292.9000,-799206,326.307
292.8000,-934025,326.277
292.7000,-1.03601E+006,326.252
292.6000,-1.1289E+006,326.209
292.5000,-1.16989E+006,326.159
292.4000,-1.21639E+006,326.135
292.3000,-1.30379E+006,326.089
292.2000,-1.37078E+006,326.037
292.1000,-1.36591E+006,326.01
292.0000,-1.24565E+006,325.969
291.9000,-1.12637E+006,325.918
291.8000,-1.04109E+006,325.868
291.7000,-1.03913E+006,325.842
291.6000,-1.03042E+006,325.798
291.5000,-1.00035E+006,325.747
291.4000,-959112,325.718
291.3000,-896096,325.672
291.2000,-893853,325.608
291.1000,-915041,325.541
291.0000,-944012,325.493
290.9000,-937818,325.415
290.8000,-896034,325.32
290.7000,-857801,325.215
290.6000,-831230,325.105
290.5000,-888866,324.974
290.4000,-896172,324.839
290.3000,-925527,324.726
290.2000,-852373,324.599
290.1000,-792137,324.472
290.0000,-803175,324.361
289.9000,-873047,324.294
289.8000,-914685,324.239
289.7000,-952705,324.207
289.6000,-1.00061E+006,324.214
289.5000,-1.0351E+006,324.252
289.4000,-1.10338E+006,324.307
289.3000,-1.2035E+006,324.384
289.2000,-1.21539E+006,324.48
289.1000,-1.115E+006,324.591
289.0000,-1.06691E+006,324.687
288.9000,-1.00086E+006,324.78
288.8000,-897415,324.855
288.7000,-884068,324.918
288.6000,-896371,324.958
288.5000,-889206,324.985
288.4000,-901547,324.994
288.3000,-1.00093E+006,324.996
288.2000,-1.01837E+006,324.993
288.1000,-1.00534E+006,324.981
288.0000,-991951,324.964
287.9000,-1.04535E+006,324.931
287.8000,-1.02347E+006,324.913
287.7000,-1.04183E+006,324.891
287.6000,-1.05147E+006,324.864
287.5000,-1.10028E+006,324.825
287.4000,-1.16812E+006,324.79
287.3000,-1.21641E+006,324.756
287.2000,-1.29465E+006,324.724
287.1000,-1.36428E+006,324.694
287.0000,-1.35277E+006,324.65
286.9000,-1.30093E+006,324.624
286.8000,-1.21876E+006,324.611
286.7000,-1.08485E+006,324.602
286.6000,-1.03211E+006,324.574
286.5000,-1.01243E+006,324.562
286.4000,-1.0305E+006,324.558
286.3000,-993830,324.556
286.2000,-913085,324.558
286.1000,-953418,324.543
286.0000,-1.00914E+006,324.537
285.9000,-1.0801E+006,324.528
285.8000,-1.10558E+006,324.523
285.7000,-1.18278E+006,324.504
285.6000,-1.24233E+006,324.477
285.5000,-1.28279E+006,324.471
285.4000,-1.33093E+006,324.469
285.3000,-1.40831E+006,324.464
285.2000,-1.44291E+006,324.445
285.1000,-1.48133E+006,324.424
285.0000,-1.47868E+006,324.426
284.9000,-1.35933E+006,324.427
284.8000,-1.25037E+006,324.432
284.7000,-1.15301E+006,324.418
284.6000,-1.10511E+006,324.399
284.5000,-1.007E+006,324.404
284.4000,-956265,324.411
284.3000,-935461,324.419
284.2000,-948966,324.409
284.1000,-998340,324.396
284.0000,-982650,324.381
283.9000,-975582,324.387
283.8000,-991275,324.397
283.7000,-1.02753E+006,324.392
283.6000,-1.01112E+006,324.384
283.5000,-1.02052E+006,324.378
283.4000,-1.04801E+006,324.375
283.3000,-1.09752E+006,324.391
283.2000,-1.09781E+006,324.412
283.1000,-1.09466E+006,324.419
283.0000,-1.13718E+006,324.414
282.9000,-1.17842E+006,324.41
282.8000,-1.20902E+006,324.407
282.7000,-1.20453E+006,324.419
282.6000,-1.11981E+006,324.435
282.5000,-1.02059E+006,324.436
282.4000,-1.00338E+006,324.427
282.3000,-1.0884E+006,324.416
282.2000,-1.12095E+006,324.41
282.1000,-1.09205E+006,324.426
282.0000,-1.09591E+006,324.436
281.9000,-1.07153E+006,324.436
281.8000,-1.09558E+006,324.429
281.7000,-1.14113E+006,324.422
281.6000,-1.19762E+006,324.42
281.5000,-1.21046E+006,324.419
281.4000,-1.18273E+006,324.439
281.3000,-1.15824E+006,324.445
281.2000,-1.16949E+006,324.447
281.1000,-1.16701E+006,324.447
281.0000,-1.12614E+006,324.45
280.9000,-1.12984E+006,324.452
280.8000,-1.10095E+006,324.45
280.7000,-1.04794E+006,324.454
280.6000,-1.00931E+006,324.459
280.5000,-1.06422E+006,324.452
280.4000,-1.08286E+006,324.443
280.3000,-1.06542E+006,324.433
280.2000,-1.0364E+006,324.42
280.1000,-1.04486E+006,324.41
280.0000,-1.02408E+006,324.401
279.9000,-1.08876E+006,324.385
279.8000,-1.11932E+006,324.356
279.7000,-1.05163E+006,324.346
279.6000,-1.03833E+006,324.336
279.5000,-1.12719E+006,324.329
279.4000,-1.20668E+006,324.324
279.3000,-1.24194E+006,324.316
279.2000,-1.27155E+006,324.312
279.1000,-1.24863E+006,324.315
279.0000,-1.2518E+006,324.32
278.9000,-1.29826E+006,324.315
278.8000,-1.30745E+006,324.323
278.7000,-1.27049E+006,324.333
278.6000,-1.20167E+006,324.344
278.5000,-1.25975E+006,324.357
278.4000,-1.29043E+006,324.367
278.3000,-1.31818E+006,324.38
278.2000,-1.25118E+006,324.394
278.1000,-1.2145E+006,324.405
278.0000,-1.22159E+006,324.403
277.9000,-1.20739E+006,324.4
277.8000,-1.25118E+006,324.396
277.7000,-1.17416E+006,324.394
277.6000,-1.09651E+006,324.408
277.5000,-1.00453E+006,324.421
277.4000,-973191,324.435
277.3000,-1.0283E+006,324.449
277.2000,-991279,324.463
277.1000,-959736,324.477
277.0000,-929341,324.492
276.9000,-927149,324.51
276.8000,-903550,324.515
276.7000,-884964,324.514
276.6000,-903899,324.51
276.5000,-905029,324.51
276.4000,-880806,324.512
276.3000,-858352,324.519
276.2000,-817643,324.523
276.1000,-807214,324.527
276.0000,-867856,324.547
275.9000,-917609,324.569
275.8000,-925691,324.59
275.7000,-887319,324.609
275.6000,-854010,324.631
275.5000,-824858,324.651
275.4000,-803362,324.673
275.3000,-718336,324.698
275.2000,-637699,324.71
275.1000,-545968,324.717
275.0000,-447439,324.726
274.9000,-434345,324.734
274.8000,-393756,324.74
274.7000,-405923,324.746
274.6000,-467405,324.752
274.5000,-465256,324.761
274.4000,-439861,324.769
274.3000,-476952,324.777
274.2000,-518621,324.785
274.1000,-614162,324.797
274.0000,-653768,324.809
273.9000,-659776,324.82
273.8000,-653670,324.832
273.7000,-644863,324.843
273.6000,-677047,324.849
273.5000,-638486,324.858
273.4000,-631776,324.865
273.3000,-613616,324.875
273.2000,-592394,324.882
273.1000,-594012,324.89
273.0000,-629276,324.901
272.9000,-617987,324.913
272.8000,-715386,324.922
272.7000,-845529,324.93
272.6000,-921497,324.94
272.5000,-925604,324.957
272.4000,-947053,324.969
272.3000,-921807,324.983
272.2000,-915500,324.996
272.1000,-969520,325.004
272.0000,-957822,325.015
271.9000,-874989,325.036
271.8000,-789646,325.054
271.7000,-752281,325.072
271.6000,-712885,325.09
271.5000,-691432,325.11
271.4000,-689830,325.129
271.3000,-636284,325.155
271.2000,-580518,325.181
271.1000,-525613,325.205
271.0000,-501454,325.222
270.9000,-481487,325.218
270.8000,-462867,325.214
270.7000,-477963,325.206
270.6000,-465914,325.197
270.5000,-453157,325.182
270.4000,-456994,325.167
270.3000,-441408,325.149
270.2000,-409586,325.137
270.1000,-446844,325.138
270.0000,-507215,325.145
269.9000,-494144,325.156
269.8000,-483703,325.169
269.7000,-488487,325.185
269.6000,-489309,325.201
269.5000,-521397,325.22
269.4000,-570383,325.227
269.3000,-568300,325.235
269.2000,-535300,325.249
269.1000,-560853,325.264
269.0000,-628318,325.28
268.9000,-682804,325.296
268.8000,-739580,325.314
268.7000,-740268,325.342
268.6000,-775941,325.377
268.5000,-821814,325.417
268.4000,-874409,325.458
268.3000,-854198,325.489
268.2000,-818773,325.524
268.1000,-800006,325.555
268.0000,-787659,325.593
267.9000,-793819,325.625
267.8000,-805349,325.658
267.7000,-778859,325.694
267.6000,-728450,325.734
267.5000,-664832,325.78
267.4000,-675445,325.815
267.3000,-579041,325.862
267.2000,-530163,325.905
267.1000,-461375,325.956
267.0000,-351532,326.011
266.9000,-297566,326.067
266.8000,-287331,326.116
266.7000,-364642,326.151
266.6000,-415636,326.202
266.5000,-492902,326.252
266.4000,-540877,326.312
266.3000,-598791,326.366
266.2000,-684238,326.413
266.1000,-711131,326.466
266.0000,-742293,326.503
265.9000,-733648,326.553
265.8000,-715107,326.602
265.7000,-716800,326.654
265.6000,-723715,326.705
265.5000,-673445,326.754
265.4000,-705842,326.796
265.3000,-719133,326.833
265.2000,-671614,326.887
265.1000,-677132,326.949
265.0000,-693632,327.012
264.9000,-746253,327.078
264.8000,-743794,327.123
264.7000,-717912,327.172
264.6000,-720315,327.228
264.5000,-738478,327.294
264.4000,-828332,327.357
264.3000,-880565,327.406
264.2000,-914718,327.457
264.1000,-885614,327.513
264.0000,-983115,327.58
263.9000,-1.0714E+006,327.655
263.8000,-1.07075E+006,327.717
263.7000,-1.05436E+006,327.772
263.6000,-1.07774E+006,327.83
263.5000,-1.10056E+006,327.897
263.4000,-1.12077E+006,327.975
263.3000,-1.1971E+006,328.031
263.2000,-1.13773E+006,328.092
263.1000,-1.04196E+006,328.155
263.0000,-968901,328.225
262.9000,-879804,328.293
262.8000,-771414,328.36
262.7000,-748598,328.426
262.6000,-641402,328.488
262.5000,-577460,328.558
262.4000,-540278,328.622
262.3000,-525467,328.69
262.2000,-593344,328.758
262.1000,-661732,328.837
262.0000,-694060,328.899
261.9000,-753177,328.966
261.8000,-787097,329.039
261.7000,-720517,329.109
261.6000,-655785,329.186
261.5000,-673184,329.26
261.4000,-736776,329.324
261.3000,-746497,329.376
261.2000,-787143,329.445
261.1000,-783469,329.526
261.0000,-785298,329.607
260.9000,-874136,329.675
260.8000,-931445,329.747
260.7000,-958711,329.822
260.6000,-912377,329.901
260.5000,-873718,329.99
260.4000,-918288,330.082
260.3000,-913640,330.171
260.2000,-950550,330.242
260.1000,-884268,330.325
260.0000,-824972,330.412
259.9000,-807807,330.487
259.8000,-814644,330.573
259.7000,-808644,330.658
259.6000,-777206,330.728
259.5000,-733160,330.798
259.4000,-659279,330.871
259.3000,-599450,330.936
259.2000,-579202,331.006
259.1000,-512852,331.089
259.0000,-438656,331.157
258.9000,-407156,331.221
258.8000,-345498,331.3
258.7000,-284011,331.37
258.6000,-293418,331.444
258.5000,-234415,331.535
258.4000,-184686,331.613
258.3000,-230003,331.685
258.2000,-276313,331.776
258.1000,-255940,331.867
258.0000,-289306,331.953
257.9000,-380783,332.045
257.8000,-448405,332.131
257.7000,-592394,332.207
257.6000,-808302,332.295
257.5000,-945894,332.376
257.4000,-1.01196E+006,332.451
257.3000,-1.1136E+006,332.526
257.2000,-1.17408E+006,332.614
257.1000,-1.17592E+006,332.701
257.0000,-1.14211E+006,332.786
256.9000,-1.08143E+006,332.875
256.8000,-971332,332.954
256.7000,-963042,333.046
256.6000,-945294,333.144
256.5000,-877766,333.228
256.4000,-774629,333.305
256.3000,-693466,333.374
256.2000,-636094,333.453
256.1000,-589871,333.539
256.0000,-518310,333.628
255.9000,-325797,333.722
255.8000,-199875,333.798
255.7000,-204770,333.881
255.6000,-287057,333.972
255.5000,-367655,334.059
255.4000,-365711,334.149
255.3000,-436295,334.23
255.2000,-525634,334.314
255.1000,-669155,334.388
255.0000,-809348,334.469
254.9000,-794643,334.544
254.8000,-682540,334.618
254.7000,-693748,334.696
254.6000,-775394,334.772
254.5000,-839718,334.85
254.4000,-763271,334.925
254.3000,-660816,335.005
254.2000,-569885,335.082
254.1000,-529511,335.172
254.0000,-563139,335.258
253.9000,-594826,335.354
253.8000,-593818,335.441
253.7000,-595423,335.538
253.6000,-593394,335.632
253.5000,-690706,335.728
253.4000,-822139,335.817
253.3000,-870479,335.911
253.2000,-853512,336.007
253.1000,-863557,336.098
253.0000,-834792,336.178
252.9000,-785298,336.257
252.8000,-773646,336.331
252.7000,-798090,336.411
252.6000,-749305,336.49
252.5000,-719015,336.577
252.4000,-747946,336.656
252.3000,-759688,336.734
252.2000,-808759,336.812
252.1000,-860314,336.902
252.0000,-880369,336.992
251.9000,-842128,337.075
251.8000,-862065,337.16
251.7000,-890491,337.233
251.6000,-982899,337.305
251.5000,-968207,337.379
251.4000,-947633,337.468
251.3000,-811331,337.552
251.2000,-697064,337.63
251.1000,-653547,337.717
251.0000,-522728,337.798
250.9000,-466226,337.888
250.8000,-410071,337.982
250.7000,-314793,338.083
250.6000,-325165,338.174
250.5000,-343164,338.26
250.4000,-375126,338.362
250.3000,-389666,338.456
250.2000,-447849,338.553
250.1000,-497449,338.64
250.0000,-448158,338.724
249.9000,-481802,338.814
249.8000,-490125,338.9
249.7000,-559469,338.991
249.6000,-608770,339.07
249.5000,-636041,339.149
249.4000,-719870,339.237
249.3000,-791916,339.328
249.2000,-831181,339.427
249.1000,-860946,339.532
249.0000,-887702,339.631
248.9000,-796431,339.732
248.8000,-696987,339.846
248.7000,-713956,339.957
248.6000,-701414,340.062
248.5000,-614325,340.175
248.4000,-544671,340.282
248.3000,-533352,340.377
248.2000,-550441,340.477
248.1000,-624819,340.569
248.0000,-708867,340.65
247.9000,-670544,340.742
247.8000,-599273,340.838
247.7000,-565734,340.932
247.6000,-513285,341.036
247.5000,-554416,341.136
247.4000,-573336,341.223
247.3000,-621145,341.313
247.2000,-664260,341.414
247.1000,-751922,341.506
247.0000,-824012,341.595
246.9000,-940928,341.679
246.8000,-1.0382E+006,341.752
246.7000,-1.1104E+006,341.824
246.6000,-1.15692E+006,341.905
246.5000,-1.18964E+006,341.995
246.4000,-1.18105E+006,342.076
246.3000,-1.11681E+006,342.159
246.2000,-1.08132E+006,342.248
246.1000,-1.03433E+006,342.359
246.0000,-994151,342.479
245.9000,-924832,342.599
245.8000,-796008,342.717
245.7000,-637842,342.837
245.6000,-562447,342.958
245.5000,-551328,343.082
245.4000,-639503,343.204
245.3000,-732814,343.317
245.2000,-737718,343.429
245.1000,-726979,343.539
245.0000,-735209,343.654
244.9000,-851209,343.772
244.8000,-853867,343.895
244.7000,-840737,344.024
244.6000,-736540,344.149
244.5000,-532013,344.277
244.4000,-484055,344.394
244.3000,-508232,344.511
244.2000,-606928,344.63
244.1000,-526765,344.764
244.0000,-542797,344.901
243.9000,-656354,345.035
243.8000,-674520,345.169
243.7000,-767354,345.305
243.6000,-792296,345.441
243.5000,-721671,345.584
243.4000,-596537,345.732
243.3000,-539047,345.875
243.2000,-464608,346.009
243.1000,-288356,346.141
243.0000,-196540,346.27
242.9000,-132164,346.402
242.8000,-42738.3,346.538
242.7000,-12209.1,346.683
242.6000,-47655,346.823
242.5000,-93972.9,346.955
242.4000,-192051,347.092
242.3000,-280347,347.231
242.2000,-383845,347.374
242.1000,-415512,347.524
242.0000,-502724,347.673
241.9000,-551542,347.82
241.8000,-567360,347.969
241.7000,-579846,348.127
241.6000,-575301,348.283
241.5000,-581323,348.443
241.4000,-567524,348.602
241.3000,-591679,348.762
241.2000,-656482,348.922
241.1000,-689409,349.083
241.0000,-624387,349.246
240.9000,-484858,349.413
240.8000,-359667,349.585
240.7000,-342339,349.757
240.6000,-292569,349.928
240.5000,-236514,350.103
240.4000,-129363,350.283
240.3000,-54575.6,350.466
240.2000,-129701,350.645
240.1000,-253809,350.826
240.0000,-485464,351
239.9000,-552690,351.178
239.8000,-602281,351.362
239.7000,-658599,351.553
239.6000,-682999,351.748
239.5000,-668255,351.952
239.4000,-615857,352.153
239.3000,-649749,352.347
239.2000,-565568,352.551
239.1000,-504022,352.761
239.0000,-514130,352.966
238.9000,-379196,353.171
238.8000,-377155,353.37
238.7000,-524665,353.56
238.6000,-582659,353.749
238.5000,-564366,353.946
238.4000,-578831,354.142
238.3000,-688422,354.338
238.2000,-781498,354.538
238.1000,-981286,354.745
238.0000,-1.10411E+006,354.959
237.9000,-1.00131E+006,355.179
237.8000,-868856,355.404
237.7000,-830572,355.632
237.6000,-812587,355.862
237.5000,-773631,356.092
237.4000,-732818,356.323
237.3000,-540153,356.559
237.2000,-411660,356.791
237.1000,-336754,357.013
237.0000,-456036,357.237
236.9000,-545408,357.469
236.8000,-609098,357.706
236.7000,-657566,357.94
236.6000,-639713,358.164
236.5000,-581729,358.389
236.4000,-625593,358.613
236.3000,-643407,358.845
236.2000,-669768,359.083
236.1000,-644157,359.309
236.0000,-620750,359.53
235.9000,-538233,359.751
235.8000,-484500,359.986
235.7000,-505392,360.218
235.6000,-492260,360.447
235.5000,-451310,360.674
235.4000,-474739,360.902
235.3000,-453690,361.132
235.2000,-444063,361.373
235.1000,-387921,361.625
235.0000,-286915,361.88
234.9000,-189425,362.125
234.8000,-97509.8,362.373
234.7000,-115191,362.623
234.6000,-99742.3,362.865
234.5000,-105593,363.114
234.4000,-108775,363.365
234.3000,-144127,363.607
234.2000,-220019,363.842
234.1000,-290705,364.088
234.0000,-380549,364.336
233.9000,-476253,364.585
233.8000,-547486,364.844
233.7000,-645520,365.106
233.6000,-698718,365.37
233.5000,-646257,365.634
233.4000,-617442,365.891
233.3000,-618293,366.151
233.2000,-640100,366.417
233.1000,-634041,366.679
233.0000,-560983,366.945
232.9000,-301248,367.211
232.8000,-263261,367.468
232.7000,-412947,367.722
232.6000,-657897,367.976
232.5000,-780297,368.236
232.4000,-783165,368.49
232.3000,-787136,368.747
232.2000,-835232,368.994
232.1000,-1.01089E+006,369.24
232.0000,-1.13891E+006,369.486
231.9000,-1.02178E+006,369.742
231.8000,-878064,369.994
231.7000,-770089,370.251
231.6000,-671445,370.512
231.5000,-635551,370.768
231.4000,-688609,371.027
231.3000,-763469,371.284
231.2000,-749901,371.551
231.1000,-795416,371.81
231.0000,-775671,372.071
230.9000,-722221,372.335
230.8000,-723453,372.591
230.7000,-788838,372.853
230.6000,-777158,373.116
230.5000,-737810,373.385
230.4000,-736034,373.648
230.3000,-761653,373.916
230.2000,-771524,374.184
230.1000,-901019,374.451
230.0000,-977409,374.718
229.9000,-985342,374.976
229.8000,-978497,375.239
229.7000,-986501,375.491
229.6000,-877719,375.742
229.5000,-745464,375.983
229.4000,-626357,376.218
229.3000,-585824,376.449
229.2000,-543122,376.674
229.1000,-474549,376.896
229.0000,-454440,377.119
228.9000,-468553,377.344
228.8000,-460402,377.574
228.7000,-424081,377.815
228.6000,-418336,378.058
228.5000,-520133,378.305
228.4000,-524782,378.572
228.3000,-536609,378.85
228.2000,-551905,379.128
228.1000,-504181,379.414
228.0000,-499921,379.699
227.9000,-755467,379.972
227.8000,-1.00076E+006,380.244
227.7000,-973586,380.533
227.6000,-878878,380.811
227.5000,-773010,381.079
227.4000,-733241,381.345
227.3000,-644096,381.618
227.2000,-587638,381.887
227.1000,-558376,382.154
227.0000,-376989,382.424
226.9000,-353708,382.68
226.8000,-419781,382.935
226.7000,-523015,383.188
226.6000,-719872,383.434
226.5000,-889135,383.669
226.4000,-1.05704E+006,383.896
226.3000,-1.00851E+006,384.13
226.2000,-775178,384.376
226.1000,-773521,384.617
226.0000,-851068,384.852
225.9000,-875801,385.085
225.8000,-846023,385.321
225.7000,-861409,385.555
225.6000,-844820,385.794
225.5000,-1.02336E+006,386.026
225.4000,-1.25192E+006,386.252
225.3000,-1.32773E+006,386.486
225.2000,-1.11696E+006,386.727
225.1000,-1.09598E+006,386.967
225.0000,-1.06789E+006,387.205
224.9000,-927760,387.448
224.8000,-752981,387.687
224.7000,-452334,387.926
224.6000,-359668,388.161
224.5000,-366193,388.387
224.4000,-430684,388.609
224.3000,-221077,388.837
224.2000,-30869.9,389.062
224.1000,24593.4,389.286
224.0000,-65287,389.512
223.9000,-244181,389.736
223.8000,-308243,389.963
223.7000,-296044,390.194
223.6000,-271761,390.423
223.5000,-397115,390.647
223.4000,-540991,390.869
223.3000,-585125,391.085
223.2000,-596660,391.298
223.1000,-547687,391.509
223.0000,-485399,391.72
222.9000,-516542,391.922
222.8000,-501876,392.127
222.7000,-392078,392.334
222.6000,-268292,392.543
222.5000,-151309,392.757
222.4000,-18284.4,392.968
222.3000,93003.2,393.18
222.2000,146938,393.392
222.1000,109224,393.599
222.0000,189511,393.809
221.9000,76638.9,394.004
221.8000,-69468.9,394.194
221.7000,-173699,394.386
221.6000,-321705,394.58
221.5000,-414823,394.777
221.4000,-320356,394.972
221.3000,-123704,395.171
221.2000,35355.1,395.365
221.1000,194549,395.562
221.0000,292897,395.755
220.9000,303399,395.946
220.8000,264332,396.135
220.7000,194897,396.316
220.6000,87163.6,396.495
220.5000,-117871,396.675
220.4000,-292431,396.85
220.3000,-339926,397.03
220.2000,-394617,397.214
220.1000,-419058,397.391
220.0000,-504382,397.568
219.9000,-506888,397.751
219.8000,-502960,397.929
219.7000,-538128,398.106
219.6000,-497179,398.283
219.5000,-505334,398.463
219.4000,-392663,398.641
219.3000,-246233,398.821
219.2000,-119796,399
219.1000,-69512.1,399.173
219.0000,-169648,399.348
218.9000,-252940,399.518
218.8000,-247986,399.692
218.7000,-493322,399.853
218.6000,-659225,400.017
218.5000,-827802,400.178
218.4000,-990318,400.343
218.3000,-984002,400.508
218.2000,-960608,400.674
218.1000,-892742,400.841
218.0000,-944412,401.005
217.9000,-917340,401.171
217.8000,-762662,401.334
217.7000,-756301,401.499
217.6000,-625414,401.663
217.5000,-473844,401.83
217.4000,-455607,401.99
217.3000,-402743,402.148
217.2000,-210937,402.312
217.1000,-16434.4,402.477
217.0000,17666.6,402.634
216.9000,-2468.42,402.79
216.8000,23171.6,402.943
216.7000,-84426.8,403.09
216.6000,-149758,403.242
216.5000,25435.6,403.399
216.4000,127996,403.551
216.3000,63958,403.694
216.2000,112451,403.848
216.1000,219562,404.003
216.0000,179334,404.155
215.9000,124122,404.303
215.8000,147039,404.451
215.7000,-10727.5,404.599
215.6000,-108096,404.75
215.5000,-41689.8,404.907
215.4000,-61316.2,405.06
215.3000,-235196,405.204
215.2000,-198163,405.354
215.1000,12809,405.514
215.0000,97949.4,405.674
214.9000,249646,405.83
214.8000,177730,405.976
214.7000,134173,406.122
214.6000,165704,406.268
214.5000,319474,406.42
214.4000,304909,406.567
214.3000,138659,406.711
214.2000,62497.2,406.854
214.1000,-183582,406.994
214.0000,-103872,407.146
213.9000,-152804,407.297
213.8000,-360178,407.446
213.7000,-651632,407.594
213.6000,-899520,407.746
213.5000,-912918,407.904
213.4000,-812981,408.064
213.3000,-508265,408.233
213.2000,-236994,408.401
213.1000,-112285,408.568
213.0000,49048.8,408.736
212.9000,363581,408.911
212.8000,677214,409.079
212.7000,839881,409.246
212.6000,804427,409.412
212.5000,587090,409.574
212.4000,306187,409.738
212.3000,83728.3,409.898
212.2000,-199454,410.06
212.1000,-249427,410.229
212.0000,-115667,410.409
211.9000,-335387,410.585
211.8000,-509427,410.753
211.7000,-540411,410.928
211.6000,-502706,411.106
211.5000,-518747,411.281
211.4000,-264123,411.466
211.3000,-380897,411.643
211.2000,-710861,411.811
211.1000,-750469,411.986
211.0000,-714961,412.172
210.9000,-733679,412.355
210.8000,-819262,412.536
210.7000,-907731,412.722
210.6000,-1.11506E+006,412.901
210.5000,-1.14187E+006,413.089
210.4000,-968774,413.282
210.3000,-841712,413.478
210.2000,-630951,413.669
210.1000,-443368,413.863
210.0000,-353940,414.055
209.9000,-98022.3,414.249
209.8000,73840.2,414.444
209.7000,223677,414.641
209.6000,274283,414.836
209.5000,278207,415.032
209.4000,128494,415.222
209.3000,15780.2,415.415
209.2000,76952.9,415.614
209.1000,365.38,415.813
209.0000,-65987.3,416.01
208.9000,-38340.7,416.214
208.8000,-10736.1,416.415
208.7000,71025.8,416.613
208.6000,-7144.81,416.818
208.5000,205874,417.033
208.4000,170862,417.241
208.3000,125171,417.453
208.2000,-20756.2,417.664
208.1000,-198309,417.871
208.0000,-473311,418.074
207.9000,-519663,418.284
207.8000,-552069,418.498
207.7000,-697695,418.707
207.6000,-880856,418.916
207.5000,-988292,419.122
207.4000,-996052,419.329
207.3000,-855826,419.541
207.2000,-593913,419.756
207.1000,-433361,419.97
207.0000,-340957,420.182
206.9000,-349036,420.39
206.8000,-233284,420.603
206.7000,-79498.4,420.819
206.6000,104724,421.036
206.5000,442050,421.261
206.4000,500510,421.478
206.3000,649321,421.701
206.2000,552374,421.909
206.1000,320645,422.111
206.0000,285928,422.319
205.9000,172062,422.522
205.8000,71370.8,422.729
205.7000,-129163,422.933
205.6000,-197125,423.143
205.5000,-296011,423.354
205.4000,-354805,423.563
205.3000,-114691,423.788
205.2000,117910,424.013
205.1000,51661.5,424.233
205.0000,26461.8,424.45
204.9000,-43748.7,424.667
204.8000,-151698,424.883
204.7000,-94193.9,425.106
204.6000,-16175.5,425.33
204.5000,-3609.74,425.555
204.4000,63335.8,425.778
204.3000,181501,426.005
204.2000,559047,426.242
204.1000,762178,426.477
204.0000,838268,426.708
203.9000,778359,426.933
203.8000,703991,427.161
203.7000,655378,427.392
203.6000,488616,427.623
203.5000,383481,427.856
203.4000,371937,428.091
203.3000,372860,428.329
203.2000,454215,428.571
203.1000,399472,428.812
203.0000,473121,429.061
202.9000,442209,429.308
202.8000,466465,429.557
202.7000,557050,429.809
202.6000,561864,430.056
202.5000,545619,430.301
202.4000,493184,430.547
202.3000,401419,430.796
202.2000,451855,431.042
202.1000,386495,431.286
202.0000,347219,431.531
201.9000,252598,431.778
201.8000,-76357.3,432.026
201.7000,-464219,432.275
201.6000,-539981,432.535
201.5000,-441081,432.799
201.4000,-517203,433.061
201.3000,-730457,433.322
201.2000,-752410,433.594
201.1000,-580720,433.873
201.0000,-491893,434.146
200.9000,-140988,434.427
200.8000,-55531,434.705
200.7000,-341089,434.976
200.6000,-525304,435.252
200.5000,-724070,435.535
200.4000,-799512,435.825
200.3000,-1.1228E+006,436.109
200.2000,-1.4212E+006,436.398
200.1000,-1.68087E+006,436.688
200.0000,-1.89414E+006,436.978
199.9000,-1.80527E+006,437.276
199.8000,-1.56936E+006,437.581
199.7000,-1.18671E+006,437.879
199.6000,-897069,438.171
199.5000,-848921,438.457
199.4000,-532285,438.744
199.3000,-202315,439.032
199.2000,144100,439.326
199.1000,426575,439.619
199.0000,658829,439.914
198.9000,773233,440.218
198.8000,709870,440.526
198.7000,786303,440.845
198.6000,890714,441.171
198.5000,733565,441.502
198.4000,904878,441.843
198.3000,776606,442.178
198.2000,675810,442.528
198.1000,443552,442.88
198.0000,505078,443.255
197.9000,478561,443.643
197.8000,313805,444.04
197.7000,331679,444.455
197.6000,111483,444.872
197.5000,-58680.7,445.294
197.4000,-114457,445.711
197.3000,-166232,446.114
197.2000,-471888,446.479
197.1000,-616634,446.814
197.0000,-634295,447.119
196.9000,-680460,447.398
196.8000,-727148,447.656
196.7000,-731641,447.91
196.6000,-889240,448.165
196.5000,-899651,448.431
196.4000,-632605,448.73
196.3000,-330471,449.069
196.2000,-262047,449.439
196.1000,-309770,449.844
196.0000,-170385,450.298
195.9000,74927,450.806
195.8000,165576,451.369
195.7000,123300,451.998
195.6000,53702.6,452.707
195.5000,-92969.8,453.505
195.4000,13733.8,454.381
195.3000,295321,455.318
195.2000,349241,456.28
195.1000,235081,457.247
195.0000,32234.6,458.167
194.9000,-362880,458.991
194.8000,-466382,459.674
194.7000,-508719,460.189
194.6000,-411266,460.556
194.5000,-537019,460.778
194.4000,-588881,460.895
194.3000,-529087,460.937
194.2000,-534089,460.941
194.1000,-182058,460.977
194.0000,180590,461.106
193.9000,298888,461.366
193.8000,263352,461.772
193.7000,196146,462.359
193.6000,163500,463.153
193.5000,130323,464.177
193.4000,-192301,465.458
193.3000,-285628,467.006
193.2000,-414327,468.804
193.1000,-780734,470.803
193.0000,-830013,472.969
192.9000,-958325,475.207
192.8000,-1.15822E+006,477.409
192.7000,-1.28061E+006,479.445
192.6000,-1.45197E+006,481.142
192.5000,-1.42607E+006,482.397
192.4000,-1.28425E+006,483.168
192.3000,-1.07368E+006,483.475
192.2000,-838308,483.373
192.1000,-719250,482.931
192.0000,-555701,482.258
191.9000,-490434,481.488
191.8000,-491314,480.817
191.7000,-266296,480.445
191.6000,-431396,480.459
191.5000,-854913,480.894
191.4000,-1.18334E+006,481.783
191.3000,-1.30701E+006,483.17
191.2000,-1.42029E+006,485.088
191.1000,-1.33084E+006,487.527
191.0000,-842773,490.422
190.9000,-573813,493.652
190.8000,-425856,497.059
190.7000,-54202.1,500.542
190.6000,462131,503.971
190.5000,890297,507.131
190.4000,978804,509.773
190.3000,899976,511.712
190.2000,1.0875E+006,512.911
190.1000,998456,513.405
190.0000,1.31004E+006,513.345

##### Extended Information
[Comments]
Sample name,D2_0.8uM
Comment
User
Division
Company,CSIR-IMTECH

[Detailed Information]
Creation date,3/11/2024 2:05 PM

Data array type,Linear data array * 2
Horizontal axis,Wavelength [nm]
Vertical axis(1),Mol. Ellip.
Vertical axis(2),HT [V]
Start,350 nm
End,190 nm
Data interval,0.1 nm
Data points,1601    

[Measurement Information]
Instrument Name,JASCO CD
Model Name,J-815
Serial No.,B063061168

Accessory,PTC-423S
Accessory S/N,C013945-01
  Temperature,37.62 C
  Control Sonsor,Cell
  Monitor Sensor,Cell
  Start Mode,Start immediately
  Cell Length,10 mm

Measurement date,3/11/2024 1:36 PM

Photometric Mode,CD, HT
Measure Range,350 - 190 nm
Data pitch,0.1 nm
Sensitivity,Standard
D.I.T.,1 sec
Bandwidth,1.00 nm
Start Mode,Immediately
Scanning Speed,50 nm/min
Baseline Correction,None
Shutter Control,Manual
CD Detector,PMT
PMT Voltage,Auto
Accumulations,3
Concentration,0.8 umol/L

