TITLE	ACE2
DATA TYPE	
ORIGIN	JASCO
OWNER	
DATE	24/04/08
TIME	17:56:44
SPECTROMETER/DATA SYSTEM	
LOCALE	1033
RESOLUTION	
DELTAX	-0.1
XUNITS	NANOMETERS
YUNITS	Mol. Ellip.
Y2UNITS	HT [V]
FIRSTX	  350.0000
LASTX	  190.0000
NPOINTS	    1601
FIRSTY	-3093040.75000
MAXY	23532976.00000
MINY	-9152081.00000
XYDATA
350.0000	-3.09304E+006	480.564
349.9000	-3.59464E+006	479.961
349.8000	-3.74194E+006	479.065
349.7000	-3.10314E+006	478.168
349.6000	-2.08976E+006	477.539
349.5000	-1.75149E+006	476.989
349.4000	-1.94541E+006	476.131
349.3000	-1.61096E+006	475.522
349.2000	-673453	475.007
349.1000	-301160	474.177
349.0000	-199500	473.559
348.9000	-698495	473.011
348.8000	-1.24213E+006	472.167
348.7000	-1.43997E+006	471.312
348.6000	-2.0867E+006	470.693
348.5000	-2.38301E+006	470.163
348.4000	-3.3898E+006	469.292
348.3000	-3.59534E+006	468.648
348.2000	-3.46963E+006	468.087
348.1000	-3.21889E+006	467.247
348.0000	-3.68707E+006	466.607
347.9000	-4.11566E+006	466.044
347.8000	-2.5946E+006	465.222
347.7000	-1.76553E+006	464.379
347.6000	-1.12588E+006	463.783
347.5000	-1.09685E+006	463.285
347.4000	-1.69825E+006	462.504
347.3000	-2.66306E+006	461.913
347.2000	-2.90914E+006	461.415
347.1000	-2.81018E+006	460.668
347.0000	-3.19135E+006	460.114
346.9000	-3.5704E+006	459.637
346.8000	-3.68498E+006	458.89
346.7000	-3.06439E+006	458.137
346.6000	-2.28747E+006	457.578
346.5000	-1.74007E+006	456.827
346.4000	-836453	456.066
346.3000	-306259	455.477
346.2000	-15149.3	454.709
346.1000	705572	453.929
346.0000	1.28133E+006	453.348
345.9000	1.88448E+006	452.848
345.8000	1.89414E+006	452.064
345.7000	1.62648E+006	451.485
345.6000	647263	450.985
345.5000	99843.1	450.279
345.4000	-395968	449.766
345.3000	-1.02637E+006	449.33
345.2000	-1.49888E+006	448.639
345.1000	-1.60373E+006	447.94
345.0000	-2.12764E+006	447.427
344.9000	-1.55941E+006	446.787
344.8000	-357866	446.138
344.7000	-287497	445.622
344.6000	75852.5	444.947
344.5000	774933	444.264
344.4000	1.24882E+006	443.755
344.3000	1.29948E+006	443.098
344.2000	1.6594E+006	442.435
344.1000	2.34534E+006	441.939
344.0000	2.08988E+006	441.289
343.9000	2.18939E+006	440.638
343.8000	2.58918E+006	440.172
343.7000	2.34525E+006	439.767
343.6000	1.72679E+006	439.143
343.5000	474926	438.682
343.4000	-1.06477E+006	438.284
343.3000	-2.48817E+006	437.638
343.2000	-2.9357E+006	437.164
343.1000	-3.04805E+006	436.755
343.0000	-3.18734E+006	436.173
342.9000	-3.48226E+006	435.577
342.8000	-3.06451E+006	435.134
342.7000	-2.68723E+006	434.524
342.6000	-1.57431E+006	433.915
342.5000	-940375	433.471
342.4000	-824549	432.924
342.3000	-728839	432.361
342.2000	-969086	431.918
342.1000	-1.11528E+006	431.335
342.0000	-1.0846E+006	430.751
341.9000	-993106	430.339
341.8000	-683178	429.799
341.7000	-724073	429.246
341.6000	-442741	428.834
341.5000	-799154	428.297
341.4000	-990991	427.755
341.3000	-664681	427.359
341.2000	-309293	426.814
341.1000	-188046	426.26
341.0000	-245940	425.849
340.9000	-546518	425.31
340.8000	-516466	424.761
340.7000	-252860	424.344
340.6000	356736	423.827
340.5000	213991	423.299
340.4000	299246	422.916
340.3000	67167.6	422.393
340.2000	-412605	421.855
340.1000	-148411	421.467
340.0000	265428	420.99
339.9000	442545	420.503
339.8000	161077	420.129
339.7000	309145	419.65
339.6000	430713	419.166
339.5000	-40714.3	418.825
339.4000	-136549	418.375
339.3000	-371676	417.903
339.2000	-457191	417.394
339.1000	-632774	416.937
339.0000	-402395	416.468
338.9000	-770420	415.935
338.8000	-1.24545E+006	415.445
338.7000	-1.36165E+006	414.95
338.6000	-1.15977E+006	414.416
338.5000	-397447	413.955
338.4000	-463310	413.602
338.3000	-438043	413.155
338.2000	-1.09482E+006	412.697
338.1000	-1.12287E+006	412.372
338.0000	-637479	411.955
337.9000	-1.03516E+006	411.526
337.8000	-954206	411.227
337.7000	-1.29795E+006	410.831
337.6000	-1.31402E+006	410.422
337.5000	-1.70591E+006	410.111
337.4000	-1.59705E+006	409.722
337.3000	-1.78883E+006	409.318
337.2000	-1.93877E+006	408.863
337.1000	-1.76989E+006	408.456
337.0000	-1.60902E+006	408.035
336.9000	-1.69237E+006	407.582
336.8000	-1.65576E+006	407.181
336.7000	-1.59879E+006	406.779
336.6000	-1.34951E+006	406.332
336.5000	-1.11039E+006	405.921
336.4000	-849547	405.629
336.3000	-747364	405.225
336.2000	-525921	404.817
336.1000	-46303.6	404.511
336.0000	-114525	404.143
335.9000	-135863	403.762
335.8000	4801.86	403.338
335.7000	81523.5	402.959
335.6000	234916	402.575
335.5000	261811	402.177
335.4000	97786.1	401.836
335.3000	397237	401.495
335.2000	156357	401.116
335.1000	306230	400.774
335.0000	301771	400.544
334.9000	342301	400.225
334.8000	457904	399.891
334.7000	364948	399.524
334.6000	295815	399.202
334.5000	416870	398.873
334.4000	487371	398.486
334.3000	643935	398.131
334.2000	231128	397.762
334.1000	-240728	397.355
334.0000	-657001	396.998
333.9000	-950352	396.739
333.8000	-678160	396.415
333.7000	-935519	396.077
333.6000	-1.15426E+006	395.704
333.5000	-1.48336E+006	395.379
333.4000	-1.42399E+006	395.053
333.3000	-1.30457E+006	394.708
333.2000	-900110	394.411
333.1000	-540927	394.103
333.0000	-774690	393.767
332.9000	-829006	393.466
332.8000	-752755	393.128
332.7000	-379377	392.836
332.6000	-493024	392.532
332.5000	-718536	392.198
332.4000	-752891	391.909
332.3000	-1.35446E+006	391.611
332.2000	-1.45976E+006	391.276
332.1000	-1.27327E+006	390.968
332.0000	-1.48188E+006	390.633
331.9000	-2.12996E+006	390.343
331.8000	-2.57793E+006	390.052
331.7000	-2.76908E+006	389.727
331.6000	-2.99841E+006	389.43
331.5000	-2.70339E+006	389.019
331.4000	-2.43752E+006	388.693
331.3000	-2.14821E+006	388.407
331.2000	-2.15609E+006	388.091
331.1000	-1.89412E+006	387.816
331.0000	-1.51557E+006	387.536
330.9000	-946044	387.248
330.8000	-393214	386.997
330.7000	-117484	386.714
330.6000	-143682	386.468
330.5000	-551188	386.213
330.4000	-658269	385.927
330.3000	-964784	385.671
330.2000	-1.20955E+006	385.31
330.1000	-1.19827E+006	385.016
330.0000	-1.49141E+006	384.749
329.9000	-1.8641E+006	384.454
329.8000	-2.30203E+006	384.188
329.7000	-2.39921E+006	383.845
329.6000	-2.23813E+006	383.587
329.5000	-1.95954E+006	383.369
329.4000	-1.79733E+006	383.087
329.3000	-1.46557E+006	382.837
329.2000	-1.41944E+006	382.487
329.1000	-1.37605E+006	382.216
329.0000	-1.43684E+006	381.977
328.9000	-1.92216E+006	381.693
328.8000	-2.5566E+006	381.427
328.7000	-3.06516E+006	381.082
328.6000	-3.1679E+006	380.835
328.5000	-3.28534E+006	380.634
328.4000	-3.33464E+006	380.371
328.3000	-3.19117E+006	380.134
328.2000	-3.16053E+006	379.848
328.1000	-2.37668E+006	379.643
328.0000	-1.72848E+006	379.469
327.9000	-1.24008E+006	379.216
327.8000	-938282	378.983
327.7000	-787765	378.718
327.6000	-569506	378.55
327.5000	-244209	378.427
327.4000	448067	378.168
327.3000	420999	377.905
327.2000	500033	377.594
327.1000	462725	377.377
327.0000	568502	377.208
326.9000	286401	376.936
326.8000	-57319.5	376.657
326.7000	-457840	376.341
326.6000	-923736	376.152
326.5000	-1.26383E+006	376.025
326.4000	-1.26277E+006	375.779
326.3000	-1.06751E+006	375.538
326.2000	-1.39526E+006	375.275
326.1000	-1.43312E+006	375.101
326.0000	-944379	374.807
325.9000	-984431	374.527
325.8000	-1.01104E+006	374.253
325.7000	-1.22857E+006	373.992
325.6000	-1.50664E+006	373.841
325.5000	-2.02496E+006	373.542
325.4000	-2.30803E+006	373.247
325.3000	-2.58601E+006	372.949
325.2000	-2.82694E+006	372.78
325.1000	-2.57004E+006	372.679
325.0000	-2.33211E+006	372.414
324.9000	-1.8362E+006	372.137
324.8000	-1.43271E+006	371.846
324.7000	-1.3021E+006	371.702
324.6000	-1.51387E+006	371.63
324.5000	-1.48631E+006	371.378
324.4000	-1.25217E+006	371.113
324.3000	-1.39455E+006	370.855
324.2000	-1.48398E+006	370.712
324.1000	-1.80002E+006	370.439
324.0000	-1.75295E+006	370.161
323.9000	-1.91828E+006	369.873
323.8000	-1.66825E+006	369.616
323.7000	-1.0665E+006	369.492
323.6000	-1.00268E+006	369.23
323.5000	-828928	368.948
323.4000	-915939	368.67
323.3000	-1.05849E+006	368.53
323.2000	-1.33351E+006	368.453
323.1000	-1.21626E+006	368.215
323.0000	-844739	367.953
322.9000	-794123	367.678
322.8000	-960898	367.538
322.7000	-905697	367.296
322.6000	-733644	367.029
322.5000	-692444	366.749
322.4000	-529591	366.469
322.3000	-293752	366.294
322.2000	-303429	365.994
322.1000	-249588	365.676
322.0000	-372444	365.363
321.9000	-495994	365.175
321.8000	-654747	364.893
321.7000	-769996	364.603
321.6000	-843316	364.309
321.5000	-1.21992E+006	364.03
321.4000	-1.40192E+006	363.891
321.3000	-1.8558E+006	363.691
321.2000	-2.05489E+006	363.488
321.1000	-2.27124E+006	363.277
321.0000	-2.75555E+006	363.19
320.9000	-2.86376E+006	363.037
320.8000	-2.60807E+006	362.89
320.7000	-2.62229E+006	362.747
320.6000	-2.69714E+006	362.605
320.5000	-2.49716E+006	362.56
320.4000	-1.94824E+006	362.402
320.3000	-1.6544E+006	362.237
320.2000	-1.22506E+006	362.08
320.1000	-683828	362.024
320.0000	-539671	361.869
319.9000	-576761	361.7
319.8000	-442376	361.513
319.7000	-322071	361.315
319.6000	-663485	361.1
319.5000	-1.28916E+006	360.935
319.4000	-1.73893E+006	360.758
319.3000	-2.10874E+006	360.547
319.2000	-2.48153E+006	360.43
319.1000	-2.79717E+006	360.229
319.0000	-2.86697E+006	360.026
318.9000	-3.29819E+006	359.816
318.8000	-3.49296E+006	359.691
318.7000	-3.22257E+006	359.468
318.6000	-2.61543E+006	359.245
318.5000	-2.30244E+006	359.045
318.4000	-2.20299E+006	358.848
318.3000	-2.21293E+006	358.627
318.2000	-2.43253E+006	358.454
318.1000	-2.22203E+006	358.286
318.0000	-2.03906E+006	358.105
317.9000	-1.985E+006	358.029
317.8000	-1.95145E+006	357.908
317.7000	-1.93324E+006	357.772
317.6000	-2.02829E+006	357.594
317.5000	-1.95006E+006	357.499
317.4000	-1.72985E+006	357.346
317.3000	-1.75647E+006	357.185
317.2000	-1.74189E+006	357.005
317.1000	-1.7808E+006	356.821
317.0000	-1.72371E+006	356.585
316.9000	-1.50975E+006	356.383
316.8000	-1.34274E+006	356.194
316.7000	-1.33216E+006	356.004
316.6000	-1.61337E+006	355.81
316.5000	-1.62326E+006	355.644
316.4000	-1.4994E+006	355.471
316.3000	-1.58335E+006	355.301
316.2000	-1.48229E+006	355.137
316.1000	-1.43488E+006	355.014
316.0000	-1.62644E+006	354.899
315.9000	-1.69795E+006	354.749
315.8000	-1.40549E+006	354.652
315.7000	-1.18534E+006	354.491
315.6000	-1.45648E+006	354.347
315.5000	-1.4631E+006	354.175
315.4000	-1.48317E+006	354.063
315.3000	-2.00208E+006	353.865
315.2000	-2.10812E+006	353.658
315.1000	-2.02099E+006	353.468
315.0000	-2.05935E+006	353.287
314.9000	-2.01704E+006	353.106
314.8000	-1.79748E+006	352.953
314.7000	-1.67933E+006	352.793
314.6000	-1.79147E+006	352.635
314.5000	-1.63771E+006	352.491
314.4000	-1.54053E+006	352.385
314.3000	-1.74938E+006	352.251
314.2000	-1.82188E+006	352.117
314.1000	-1.87436E+006	351.944
314.0000	-2.12653E+006	351.786
313.9000	-2.313E+006	351.619
313.8000	-2.37516E+006	351.464
313.7000	-2.3393E+006	351.251
313.6000	-2.34546E+006	351.052
313.5000	-2.40418E+006	350.863
313.4000	-2.34441E+006	350.686
313.3000	-2.50241E+006	350.515
313.2000	-2.55929E+006	350.375
313.1000	-2.47005E+006	350.23
313.0000	-2.26253E+006	350.088
312.9000	-1.83335E+006	349.96
312.8000	-1.62701E+006	349.869
312.7000	-1.61346E+006	349.742
312.6000	-1.77313E+006	349.618
312.5000	-1.5805E+006	349.459
312.4000	-1.55314E+006	349.311
312.3000	-1.86573E+006	349.141
312.2000	-2.24857E+006	348.972
312.1000	-2.50878E+006	348.752
312.0000	-2.73459E+006	348.546
311.9000	-2.75511E+006	348.347
311.8000	-2.70639E+006	348.117
311.7000	-2.9104E+006	347.933
311.6000	-2.90868E+006	347.737
311.5000	-2.48255E+006	347.575
311.4000	-2.11464E+006	347.378
311.3000	-1.9795E+006	347.247
311.2000	-1.94749E+006	347.115
311.1000	-2.06247E+006	347.006
311.0000	-1.86811E+006	346.889
310.9000	-1.5836E+006	346.79
310.8000	-1.29875E+006	346.68
310.7000	-980483	346.589
310.6000	-932098	346.466
310.5000	-1.02673E+006	346.363
310.4000	-1.22989E+006	346.264
310.3000	-860900	346.178
310.2000	-946750	346.094
310.1000	-1.32402E+006	346.024
310.0000	-1.41371E+006	345.947
309.9000	-1.44561E+006	345.882
309.8000	-1.51492E+006	345.82
309.7000	-1.46121E+006	345.723
309.6000	-1.47349E+006	345.644
309.5000	-1.77901E+006	345.528
309.4000	-1.59228E+006	345.435
309.3000	-1.33599E+006	345.297
309.2000	-1.41101E+006	345.184
309.1000	-1.63649E+006	345.018
309.0000	-1.85727E+006	344.879
308.9000	-1.62286E+006	344.76
308.8000	-1.32935E+006	344.65
308.7000	-1.02638E+006	344.549
308.6000	-1.07495E+006	344.458
308.5000	-1.22937E+006	344.356
308.4000	-1.01171E+006	344.25
308.3000	-905253	344.187
308.2000	-824685	344.083
308.1000	-861839	343.999
308.0000	-980592	343.899
307.9000	-1.1759E+006	343.815
307.8000	-1.15563E+006	343.681
307.7000	-1.28834E+006	343.574
307.6000	-1.29772E+006	343.46
307.5000	-1.22244E+006	343.301
307.4000	-896010	343.187
307.3000	-682901	343.079
307.2000	-615388	342.991
307.1000	-612127	342.859
307.0000	-561315	342.763
306.9000	-591221	342.671
306.8000	-571345	342.61
306.7000	-734713	342.538
306.6000	-1.30297E+006	342.442
306.5000	-1.91165E+006	342.358
306.4000	-2.5518E+006	342.228
306.3000	-2.75162E+006	342.138
306.2000	-2.83961E+006	342.025
306.1000	-2.99945E+006	341.924
306.0000	-2.94328E+006	341.782
305.9000	-2.93408E+006	341.678
305.8000	-2.88953E+006	341.6
305.7000	-2.63516E+006	341.486
305.6000	-2.28338E+006	341.407
305.5000	-2.11372E+006	341.324
305.4000	-1.93505E+006	341.274
305.3000	-1.77837E+006	341.181
305.2000	-1.70751E+006	341.118
305.1000	-1.87471E+006	341.035
305.0000	-2.05424E+006	340.918
304.9000	-2.22962E+006	340.839
304.8000	-2.35104E+006	340.739
304.7000	-2.18155E+006	340.656
304.6000	-2.29633E+006	340.533
304.5000	-2.40451E+006	340.428
304.4000	-2.67125E+006	340.338
304.3000	-2.92824E+006	340.223
304.2000	-3.03267E+006	340.156
304.1000	-3.03663E+006	340.091
304.0000	-3.02102E+006	340.054
303.9000	-3.19919E+006	339.966
303.8000	-3.42483E+006	339.882
303.7000	-3.52504E+006	339.832
303.6000	-3.60949E+006	339.731
303.5000	-3.45079E+006	339.663
303.4000	-3.41178E+006	339.579
303.3000	-3.4387E+006	339.465
303.2000	-3.38356E+006	339.357
303.1000	-3.28617E+006	339.268
303.0000	-3.3164E+006	339.214
302.9000	-3.33996E+006	339.12
302.8000	-3.28393E+006	339.042
302.7000	-3.19611E+006	338.983
302.6000	-2.8988E+006	338.898
302.5000	-2.28621E+006	338.855
302.4000	-2.04917E+006	338.8
302.3000	-2.02189E+006	338.707
302.2000	-1.90168E+006	338.622
302.1000	-1.78758E+006	338.537
302.0000	-1.74788E+006	338.482
301.9000	-1.59429E+006	338.4
301.8000	-1.55073E+006	338.327
301.7000	-1.85294E+006	338.266
301.6000	-2.29388E+006	338.175
301.5000	-2.5037E+006	338.125
301.4000	-2.47878E+006	338.073
301.3000	-2.46771E+006	337.995
301.2000	-2.46607E+006	337.926
301.1000	-2.63308E+006	337.862
301.0000	-2.79036E+006	337.831
300.9000	-2.81745E+006	337.759
300.8000	-2.7058E+006	337.684
300.7000	-2.49512E+006	337.625
300.6000	-2.57707E+006	337.549
300.5000	-2.5948E+006	337.487
300.4000	-2.51309E+006	337.439
300.3000	-2.50484E+006	337.366
300.2000	-2.60174E+006	337.293
300.1000	-2.71887E+006	337.233
300.0000	-2.87529E+006	337.169
299.9000	-2.99917E+006	337.117
299.8000	-3.14955E+006	337.064
299.7000	-3.28684E+006	336.998
299.6000	-3.4303E+006	336.944
299.5000	-3.34932E+006	336.887
299.4000	-3.0808E+006	336.843
299.3000	-3.15211E+006	336.778
299.2000	-2.93593E+006	336.732
299.1000	-2.8511E+006	336.693
299.0000	-2.58569E+006	336.634
298.9000	-2.48231E+006	336.586
298.8000	-2.28346E+006	336.55
298.7000	-2.02638E+006	336.496
298.6000	-2.10782E+006	336.444
298.5000	-2.07707E+006	336.393
298.4000	-2.21717E+006	336.329
298.3000	-2.08766E+006	336.269
298.2000	-1.99195E+006	336.21
298.1000	-1.9398E+006	336.149
298.0000	-1.93807E+006	336.095
297.9000	-2.20664E+006	336.041
297.8000	-2.37133E+006	335.973
297.7000	-2.12193E+006	335.926
297.6000	-1.88207E+006	335.891
297.5000	-2.04143E+006	335.831
297.4000	-2.40444E+006	335.785
297.3000	-2.59249E+006	335.744
297.2000	-2.74833E+006	335.677
297.1000	-2.86707E+006	335.626
297.0000	-2.83967E+006	335.579
296.9000	-2.81061E+006	335.508
296.8000	-2.94796E+006	335.448
296.7000	-2.93984E+006	335.402
296.6000	-2.73791E+006	335.369
296.5000	-2.68714E+006	335.324
296.4000	-2.74474E+006	335.288
296.3000	-2.7025E+006	335.262
296.2000	-2.75101E+006	335.224
296.1000	-2.91787E+006	335.188
296.0000	-3.3701E+006	335.158
295.9000	-3.61142E+006	335.113
295.8000	-3.62984E+006	335.05
295.7000	-3.57146E+006	335.008
295.6000	-3.38367E+006	334.966
295.5000	-3.31223E+006	334.903
295.4000	-3.23991E+006	334.834
295.3000	-3.23886E+006	334.791
295.2000	-3.13573E+006	334.737
295.1000	-2.99432E+006	334.673
295.0000	-2.82241E+006	334.641
294.9000	-2.98798E+006	334.591
294.8000	-3.00861E+006	334.524
294.7000	-2.81732E+006	334.486
294.6000	-2.76155E+006	334.451
294.5000	-2.68905E+006	334.398
294.4000	-2.49922E+006	334.361
294.3000	-2.36894E+006	334.331
294.2000	-2.11783E+006	334.283
294.1000	-1.79399E+006	334.248
294.0000	-1.76275E+006	334.226
293.9000	-1.95326E+006	334.179
293.8000	-2.05471E+006	334.148
293.7000	-2.11219E+006	334.127
293.6000	-1.96622E+006	334.083
293.5000	-1.8101E+006	334.026
293.4000	-1.94231E+006	333.999
293.3000	-2.20429E+006	333.952
293.2000	-2.18438E+006	333.898
293.1000	-1.87258E+006	333.879
293.0000	-1.91786E+006	333.834
292.9000	-1.92088E+006	333.784
292.8000	-1.98292E+006	333.764
292.7000	-2.08224E+006	333.738
292.6000	-2.22882E+006	333.698
292.5000	-2.32726E+006	333.647
292.4000	-2.54041E+006	333.619
292.3000	-2.78022E+006	333.574
292.2000	-2.68118E+006	333.527
292.1000	-2.4082E+006	333.504
292.0000	-2.54129E+006	333.459
291.9000	-2.46395E+006	333.406
291.8000	-2.46493E+006	333.357
291.7000	-2.54129E+006	333.332
291.6000	-2.79659E+006	333.283
291.5000	-2.80783E+006	333.232
291.4000	-2.97057E+006	333.206
291.3000	-3.21625E+006	333.152
291.2000	-3.28132E+006	333.087
291.1000	-3.31148E+006	333.025
291.0000	-3.4043E+006	332.979
290.9000	-3.243E+006	332.912
290.8000	-2.91351E+006	332.828
290.7000	-2.79407E+006	332.732
290.6000	-2.90346E+006	332.624
290.5000	-3.15587E+006	332.493
290.4000	-3.21936E+006	332.359
290.3000	-3.22833E+006	332.24
290.2000	-3.24006E+006	332.097
290.1000	-3.20786E+006	331.946
290.0000	-3.24232E+006	331.807
289.9000	-3.4007E+006	331.704
289.8000	-3.42245E+006	331.614
289.7000	-2.94816E+006	331.549
289.6000	-2.54233E+006	331.521
289.5000	-2.38954E+006	331.532
289.4000	-2.17684E+006	331.57
289.3000	-1.8416E+006	331.641
289.2000	-1.82591E+006	331.729
289.1000	-1.66159E+006	331.842
289.0000	-1.23463E+006	331.95
288.9000	-1.09016E+006	332.055
288.8000	-1.1317E+006	332.151
288.7000	-1.07344E+006	332.239
288.6000	-1.19118E+006	332.299
288.5000	-1.40036E+006	332.342
288.4000	-1.44241E+006	332.371
288.3000	-1.60785E+006	332.387
288.2000	-1.88064E+006	332.382
288.1000	-2.24683E+006	332.371
288.0000	-2.33269E+006	332.35
287.9000	-2.48066E+006	332.312
287.8000	-2.5217E+006	332.29
287.7000	-2.67856E+006	332.262
287.6000	-2.71076E+006	332.239
287.5000	-2.53583E+006	332.208
287.4000	-2.43624E+006	332.191
287.3000	-2.35181E+006	332.178
287.2000	-2.30318E+006	332.161
287.1000	-2.29195E+006	332.149
287.0000	-2.37801E+006	332.11
286.9000	-2.3143E+006	332.09
286.8000	-2.16702E+006	332.077
286.7000	-2.26129E+006	332.062
286.6000	-2.49211E+006	332.036
286.5000	-2.68108E+006	332.02
286.4000	-2.72069E+006	332.013
286.3000	-2.90357E+006	332.005
286.2000	-2.88399E+006	331.999
286.1000	-2.80675E+006	331.99
286.0000	-2.7841E+006	331.994
285.9000	-2.74183E+006	331.987
285.8000	-2.57535E+006	331.985
285.7000	-2.63978E+006	331.961
285.6000	-2.64246E+006	331.939
285.5000	-2.6392E+006	331.939
285.4000	-2.45317E+006	331.943
285.3000	-2.28074E+006	331.949
285.2000	-2.3035E+006	331.922
285.1000	-2.48594E+006	331.904
285.0000	-2.65515E+006	331.909
284.9000	-2.5698E+006	331.906
284.8000	-2.40823E+006	331.908
284.7000	-2.26062E+006	331.885
284.6000	-2.32414E+006	331.868
284.5000	-2.48519E+006	331.87
284.4000	-2.68333E+006	331.872
284.3000	-2.88825E+006	331.879
284.2000	-2.84457E+006	331.86
284.1000	-2.99349E+006	331.85
284.0000	-3.2065E+006	331.83
283.9000	-3.31718E+006	331.833
283.8000	-3.42672E+006	331.843
283.7000	-3.36403E+006	331.828
283.6000	-3.24716E+006	331.82
283.5000	-2.97497E+006	331.815
283.4000	-2.86004E+006	331.813
283.3000	-2.5095E+006	331.83
283.2000	-2.28973E+006	331.849
283.1000	-2.13262E+006	331.856
283.0000	-2.08079E+006	331.844
282.9000	-2.24987E+006	331.836
282.8000	-2.3462E+006	331.827
282.7000	-2.43885E+006	331.836
282.6000	-2.41072E+006	331.847
282.5000	-2.53581E+006	331.848
282.4000	-2.69517E+006	331.841
282.3000	-2.61629E+006	331.836
282.2000	-2.63438E+006	331.837
282.1000	-2.66996E+006	331.86
282.0000	-2.4242E+006	331.884
281.9000	-2.46061E+006	331.889
281.8000	-2.57748E+006	331.886
281.7000	-2.62585E+006	331.88
281.6000	-2.66241E+006	331.879
281.5000	-2.56204E+006	331.88
281.4000	-2.3841E+006	331.902
281.3000	-2.28687E+006	331.907
281.2000	-2.20755E+006	331.905
281.1000	-1.99744E+006	331.905
281.0000	-1.93672E+006	331.901
280.9000	-1.95226E+006	331.897
280.8000	-1.87769E+006	331.89
280.7000	-1.85933E+006	331.887
280.6000	-1.99725E+006	331.886
280.5000	-2.0438E+006	331.878
280.4000	-2.03121E+006	331.872
280.3000	-2.0887E+006	331.861
280.2000	-2.16339E+006	331.851
280.1000	-2.17531E+006	331.841
280.0000	-2.20324E+006	331.833
279.9000	-2.28373E+006	331.824
279.8000	-2.32423E+006	331.801
279.7000	-2.28173E+006	331.793
279.6000	-2.229E+006	331.786
279.5000	-2.33529E+006	331.784
279.4000	-2.16599E+006	331.786
279.3000	-2.09137E+006	331.786
279.2000	-2.20456E+006	331.787
279.1000	-2.38588E+006	331.789
279.0000	-2.46029E+006	331.793
278.9000	-2.74959E+006	331.786
278.8000	-3.01381E+006	331.795
278.7000	-3.04923E+006	331.807
278.6000	-3.47767E+006	331.817
278.5000	-3.71759E+006	331.832
278.4000	-3.6108E+006	331.845
278.3000	-3.2869E+006	331.861
278.2000	-3.07285E+006	331.876
278.1000	-2.95262E+006	331.888
278.0000	-2.8774E+006	331.883
277.9000	-3.03802E+006	331.869
277.8000	-3.02147E+006	331.854
277.7000	-2.81403E+006	331.846
277.6000	-2.84735E+006	331.86
277.5000	-2.63593E+006	331.876
277.4000	-2.54292E+006	331.891
277.3000	-2.31794E+006	331.911
277.2000	-2.13292E+006	331.928
277.1000	-1.94549E+006	331.946
277.0000	-1.664E+006	331.967
276.9000	-1.65646E+006	331.985
276.8000	-1.71497E+006	331.985
276.7000	-1.82665E+006	331.979
276.6000	-2.01269E+006	331.975
276.5000	-2.20692E+006	331.972
276.4000	-2.2704E+006	331.974
276.3000	-2.11266E+006	331.985
276.2000	-2.12372E+006	331.992
276.1000	-1.99736E+006	332.001
276.0000	-1.82372E+006	332.029
275.9000	-1.91114E+006	332.055
275.8000	-2.09726E+006	332.084
275.7000	-2.30467E+006	332.109
275.6000	-2.68598E+006	332.133
275.5000	-2.82481E+006	332.152
275.4000	-2.9579E+006	332.17
275.3000	-2.91305E+006	332.192
275.2000	-2.83182E+006	332.205
275.1000	-2.76088E+006	332.213
275.0000	-2.76461E+006	332.217
274.9000	-2.57687E+006	332.222
274.8000	-2.36039E+006	332.229
274.7000	-2.14517E+006	332.236
274.6000	-1.94351E+006	332.247
274.5000	-1.86558E+006	332.262
274.4000	-1.96689E+006	332.268
274.3000	-1.89364E+006	332.28
274.2000	-1.85715E+006	332.292
274.1000	-1.878E+006	332.308
274.0000	-1.84138E+006	332.321
273.9000	-2.16237E+006	332.336
273.8000	-2.46406E+006	332.354
273.7000	-2.81038E+006	332.37
273.6000	-2.98377E+006	332.389
273.5000	-3.07859E+006	332.408
273.4000	-2.84398E+006	332.423
273.3000	-2.95189E+006	332.438
273.2000	-2.84915E+006	332.46
273.1000	-2.58392E+006	332.48
273.0000	-2.15327E+006	332.494
272.9000	-1.79426E+006	332.506
272.8000	-1.56586E+006	332.517
272.7000	-1.73857E+006	332.524
272.6000	-2.13446E+006	332.538
272.5000	-2.2414E+006	332.557
272.4000	-2.01196E+006	332.574
272.3000	-2.12121E+006	332.586
272.2000	-2.41545E+006	332.603
272.1000	-2.58102E+006	332.624
272.0000	-2.67056E+006	332.646
271.9000	-2.64199E+006	332.669
271.8000	-2.42942E+006	332.693
271.7000	-2.20628E+006	332.718
271.6000	-2.14256E+006	332.74
271.5000	-2.22182E+006	332.763
271.4000	-2.06861E+006	332.783
271.3000	-2.03396E+006	332.794
271.2000	-2.13049E+006	332.801
271.1000	-1.85021E+006	332.809
271.0000	-1.6726E+006	332.81
270.9000	-1.7292E+006	332.787
270.8000	-1.99465E+006	332.761
270.7000	-2.06167E+006	332.74
270.6000	-2.14835E+006	332.721
270.5000	-2.16602E+006	332.705
270.4000	-1.99624E+006	332.698
270.3000	-2.1052E+006	332.687
270.2000	-2.31971E+006	332.68
270.1000	-2.41131E+006	332.685
270.0000	-2.34824E+006	332.697
269.9000	-2.31823E+006	332.714
269.8000	-2.3506E+006	332.728
269.7000	-2.33398E+006	332.749
269.6000	-2.25182E+006	332.774
269.5000	-2.3142E+006	332.793
269.4000	-2.14639E+006	332.805
269.3000	-2.1012E+006	332.824
269.2000	-2.12555E+006	332.847
269.1000	-2.245E+006	332.869
269.0000	-1.95895E+006	332.89
268.9000	-1.63279E+006	332.916
268.8000	-1.92884E+006	332.933
268.7000	-2.0525E+006	332.967
268.6000	-2.00431E+006	333.014
268.5000	-1.71856E+006	333.076
268.4000	-1.64933E+006	333.129
268.3000	-1.68021E+006	333.165
268.2000	-1.8678E+006	333.208
268.1000	-2.21054E+006	333.245
268.0000	-2.25406E+006	333.293
267.9000	-2.19038E+006	333.333
267.8000	-2.24937E+006	333.376
267.7000	-2.50604E+006	333.404
267.6000	-2.59715E+006	333.438
267.5000	-2.68492E+006	333.483
267.4000	-2.37015E+006	333.528
267.3000	-2.26117E+006	333.582
267.2000	-2.262E+006	333.626
267.1000	-2.56138E+006	333.677
267.0000	-2.78699E+006	333.724
266.9000	-2.83823E+006	333.777
266.8000	-2.73776E+006	333.828
266.7000	-2.64351E+006	333.868
266.6000	-2.73482E+006	333.917
266.5000	-2.88236E+006	333.968
266.4000	-2.70686E+006	334.033
266.3000	-2.48254E+006	334.091
266.2000	-2.23154E+006	334.141
266.1000	-2.14462E+006	334.189
266.0000	-2.37792E+006	334.224
265.9000	-2.5277E+006	334.277
265.8000	-2.45836E+006	334.337
265.7000	-2.25088E+006	334.401
265.6000	-1.9616E+006	334.461
265.5000	-1.7865E+006	334.524
265.4000	-1.61991E+006	334.584
265.3000	-1.45221E+006	334.642
265.2000	-1.24076E+006	334.712
265.1000	-1.07327E+006	334.781
265.0000	-936392	334.847
264.9000	-1.18969E+006	334.912
264.8000	-1.55147E+006	334.957
264.7000	-1.84457E+006	334.999
264.6000	-1.99579E+006	335.048
264.5000	-2.25921E+006	335.103
264.4000	-2.42926E+006	335.163
264.3000	-2.49537E+006	335.212
264.2000	-2.74354E+006	335.265
264.1000	-2.82446E+006	335.32
264.0000	-2.88677E+006	335.384
263.9000	-2.87707E+006	335.46
263.8000	-2.79016E+006	335.532
263.7000	-2.82116E+006	335.607
263.6000	-2.71966E+006	335.683
263.5000	-2.67137E+006	335.77
263.4000	-2.51315E+006	335.857
263.3000	-2.29352E+006	335.923
263.2000	-2.07887E+006	335.996
263.1000	-2.12398E+006	336.066
263.0000	-2.16983E+006	336.136
262.9000	-2.04225E+006	336.199
262.8000	-1.85113E+006	336.266
262.7000	-1.68062E+006	336.327
262.6000	-1.70918E+006	336.389
262.5000	-1.87362E+006	336.471
262.4000	-2.00958E+006	336.548
262.3000	-1.65688E+006	336.627
262.2000	-1.43004E+006	336.703
262.1000	-1.2513E+006	336.792
262.0000	-1.07037E+006	336.865
261.9000	-1.1476E+006	336.943
261.8000	-1.00073E+006	337.023
261.7000	-752190	337.088
261.6000	-602863	337.153
261.5000	-760030	337.224
261.4000	-990007	337.3
261.3000	-1.31186E+006	337.359
261.2000	-1.54671E+006	337.429
261.1000	-1.75552E+006	337.512
261.0000	-2.19104E+006	337.596
260.9000	-2.39077E+006	337.678
260.8000	-2.27786E+006	337.768
260.7000	-2.08825E+006	337.848
260.6000	-2.24874E+006	337.903
260.5000	-2.24888E+006	337.966
260.4000	-2.34217E+006	338.047
260.3000	-2.18898E+006	338.13
260.2000	-1.73816E+006	338.197
260.1000	-1.49534E+006	338.27
260.0000	-1.8078E+006	338.345
259.9000	-2.0204E+006	338.414
259.8000	-1.85405E+006	338.517
259.7000	-1.60338E+006	338.631
259.6000	-1.37916E+006	338.725
259.5000	-1.15084E+006	338.808
259.4000	-1.08653E+006	338.895
259.3000	-1.17518E+006	338.977
259.2000	-1.12619E+006	339.07
259.1000	-1.37547E+006	339.172
259.0000	-1.51636E+006	339.263
258.9000	-1.378E+006	339.349
258.8000	-1.33879E+006	339.441
258.7000	-1.57762E+006	339.518
258.6000	-2.04859E+006	339.595
258.5000	-2.21444E+006	339.688
258.4000	-2.10243E+006	339.773
258.3000	-1.70462E+006	339.854
258.2000	-1.34131E+006	339.944
258.1000	-1.13782E+006	340.03
258.0000	-1.27187E+006	340.118
257.9000	-1.15883E+006	340.219
257.8000	-868229	340.318
257.7000	-480770	340.413
257.6000	-417940	340.506
257.5000	-487789	340.593
257.4000	-732542	340.682
257.3000	-1.24412E+006	340.759
257.2000	-1.74157E+006	340.841
257.1000	-1.86157E+006	340.935
257.0000	-2.02952E+006	341.027
256.9000	-2.22163E+006	341.116
256.8000	-2.27221E+006	341.197
256.7000	-2.39136E+006	341.284
256.6000	-2.326E+006	341.374
256.5000	-2.02176E+006	341.467
256.4000	-1.79876E+006	341.558
256.3000	-1.75311E+006	341.633
256.2000	-1.77497E+006	341.714
256.1000	-1.82836E+006	341.807
256.0000	-2.25526E+006	341.89
255.9000	-2.37074E+006	341.98
255.8000	-2.46615E+006	342.062
255.7000	-2.60773E+006	342.147
255.6000	-2.46515E+006	342.233
255.5000	-2.47848E+006	342.31
255.4000	-2.59794E+006	342.389
255.3000	-2.72458E+006	342.454
255.2000	-2.73048E+006	342.531
255.1000	-2.59239E+006	342.603
255.0000	-2.6816E+006	342.687
254.9000	-2.75536E+006	342.767
254.8000	-2.92166E+006	342.85
254.7000	-2.98978E+006	342.944
254.6000	-2.69453E+006	343.042
254.5000	-2.51638E+006	343.137
254.4000	-2.29584E+006	343.22
254.3000	-2.09799E+006	343.308
254.2000	-1.96706E+006	343.383
254.1000	-1.68954E+006	343.462
254.0000	-1.7683E+006	343.533
253.9000	-1.72301E+006	343.609
253.8000	-1.87676E+006	343.672
253.7000	-1.73775E+006	343.739
253.6000	-1.6577E+006	343.811
253.5000	-1.79628E+006	343.892
253.4000	-1.73238E+006	343.973
253.3000	-1.74372E+006	344.056
253.2000	-1.57859E+006	344.142
253.1000	-1.20732E+006	344.24
253.0000	-932480	344.341
252.9000	-766734	344.449
252.8000	-482139	344.559
252.7000	-401461	344.667
252.6000	-274612	344.769
252.5000	-125496	344.869
252.4000	-173772	344.96
252.3000	-104224	345.053
252.2000	-222875	345.137
252.1000	-436180	345.224
252.0000	-858040	345.305
251.9000	-1.14407E+006	345.367
251.8000	-1.60197E+006	345.434
251.7000	-2.29334E+006	345.499
251.6000	-2.75129E+006	345.571
251.5000	-3.09223E+006	345.631
251.4000	-3.25703E+006	345.705
251.3000	-3.52743E+006	345.779
251.2000	-3.68397E+006	345.85
251.1000	-3.38276E+006	345.942
251.0000	-3.08935E+006	346.035
250.9000	-2.47778E+006	346.138
250.8000	-2.15206E+006	346.239
250.7000	-2.0341E+006	346.356
250.6000	-2.04983E+006	346.462
250.5000	-2.09435E+006	346.557
250.4000	-2.17646E+006	346.661
250.3000	-2.41332E+006	346.76
250.2000	-2.62054E+006	346.859
250.1000	-2.737E+006	346.945
250.0000	-2.74582E+006	347.023
249.9000	-2.73569E+006	347.093
249.8000	-2.71704E+006	347.162
249.7000	-2.7181E+006	347.244
249.6000	-2.52561E+006	347.327
249.5000	-2.31116E+006	347.411
249.4000	-2.28519E+006	347.503
249.3000	-2.28069E+006	347.599
249.2000	-1.87307E+006	347.702
249.1000	-1.81905E+006	347.808
249.0000	-1.64913E+006	347.916
248.9000	-1.60988E+006	348.015
248.8000	-1.51096E+006	348.112
248.7000	-1.33065E+006	348.203
248.6000	-1.13582E+006	348.291
248.5000	-1.02131E+006	348.389
248.4000	-895195	348.485
248.3000	-812159	348.569
248.2000	-832735	348.655
248.1000	-936252	348.737
248.0000	-655044	348.816
247.9000	-869777	348.901
247.8000	-990813	348.987
247.7000	-1.18305E+006	349.068
247.6000	-1.34087E+006	349.156
247.5000	-1.59988E+006	349.248
247.4000	-1.78799E+006	349.342
247.3000	-1.57311E+006	349.435
247.2000	-1.80618E+006	349.527
247.1000	-1.97229E+006	349.61
247.0000	-1.9701E+006	349.693
246.9000	-1.74178E+006	349.783
246.8000	-1.71992E+006	349.863
246.7000	-1.70659E+006	349.941
246.6000	-1.68345E+006	350.017
246.5000	-1.71798E+006	350.098
246.4000	-1.45643E+006	350.18
246.3000	-1.12622E+006	350.266
246.2000	-983305	350.351
246.1000	-1.05763E+006	350.442
246.0000	-1.03404E+006	350.534
245.9000	-1.13518E+006	350.631
245.8000	-1.28333E+006	350.729
245.7000	-1.3062E+006	350.835
245.6000	-1.52586E+006	350.938
245.5000	-1.6055E+006	351.041
245.4000	-1.49709E+006	351.151
245.3000	-1.35012E+006	351.254
245.2000	-1.38804E+006	351.363
245.1000	-1.67977E+006	351.465
245.0000	-1.51853E+006	351.563
244.9000	-1.53953E+006	351.649
244.8000	-1.67076E+006	351.736
244.7000	-1.87686E+006	351.842
244.6000	-2.07588E+006	351.941
244.5000	-1.91062E+006	352.038
244.4000	-1.76106E+006	352.13
244.3000	-1.66598E+006	352.221
244.2000	-1.37862E+006	352.324
244.1000	-1.14677E+006	352.446
244.0000	-1.06069E+006	352.567
243.9000	-662075	352.681
243.8000	-559922	352.788
243.7000	-751307	352.893
243.6000	-891264	353.003
243.5000	-874579	353.116
243.4000	-947330	353.232
243.3000	-873140	353.344
243.2000	-1.111E+006	353.449
243.1000	-1.47156E+006	353.551
243.0000	-1.62368E+006	353.656
242.9000	-1.70006E+006	353.771
242.8000	-1.58416E+006	353.887
242.7000	-1.80355E+006	353.99
242.6000	-2.05753E+006	354.083
242.5000	-2.37876E+006	354.168
242.4000	-2.31261E+006	354.265
242.3000	-1.79769E+006	354.372
242.2000	-1.44818E+006	354.48
242.1000	-1.18307E+006	354.59
242.0000	-1.26177E+006	354.703
241.9000	-1.46771E+006	354.825
241.8000	-1.28393E+006	354.958
241.7000	-932756	355.096
241.6000	-1.00395E+006	355.22
241.5000	-1.14451E+006	355.338
241.4000	-1.29932E+006	355.459
241.3000	-1.2203E+006	355.577
241.2000	-1.40177E+006	355.681
241.1000	-1.30374E+006	355.783
241.0000	-1.07179E+006	355.891
240.9000	-922881	355.999
240.8000	-852557	356.112
240.7000	-899986	356.226
240.6000	-1.08527E+006	356.335
240.5000	-1.38436E+006	356.444
240.4000	-1.49137E+006	356.564
240.3000	-1.27508E+006	356.69
240.2000	-1.22542E+006	356.822
240.1000	-1.48423E+006	356.956
240.0000	-1.59376E+006	357.096
239.9000	-1.7804E+006	357.24
239.8000	-1.98305E+006	357.389
239.7000	-2.10329E+006	357.539
239.6000	-2.33697E+006	357.692
239.5000	-2.37392E+006	357.852
239.4000	-2.45935E+006	358.006
239.3000	-2.66749E+006	358.15
239.2000	-2.81677E+006	358.293
239.1000	-2.54774E+006	358.449
239.0000	-2.4344E+006	358.601
238.9000	-2.33114E+006	358.749
238.8000	-2.30841E+006	358.896
238.7000	-2.68126E+006	359.042
238.6000	-3.0891E+006	359.184
238.5000	-3.15937E+006	359.331
238.4000	-3.1937E+006	359.48
238.3000	-3.30712E+006	359.626
238.2000	-3.27376E+006	359.78
238.1000	-3.27976E+006	359.942
238.0000	-3.16232E+006	360.108
237.9000	-2.89347E+006	360.275
237.8000	-2.91059E+006	360.436
237.7000	-2.87712E+006	360.599
237.6000	-2.79643E+006	360.77
237.5000	-2.76986E+006	360.942
237.4000	-2.85308E+006	361.106
237.3000	-2.47051E+006	361.264
237.2000	-2.61183E+006	361.419
237.1000	-2.73027E+006	361.575
237.0000	-2.97643E+006	361.729
236.9000	-3.06593E+006	361.892
236.8000	-3.37126E+006	362.053
236.7000	-3.36574E+006	362.211
236.6000	-3.31271E+006	362.367
236.5000	-3.54812E+006	362.524
236.4000	-3.63395E+006	362.696
236.3000	-3.43065E+006	362.869
236.2000	-3.22761E+006	363.038
236.1000	-3.00135E+006	363.202
236.0000	-2.99729E+006	363.363
235.9000	-3.05005E+006	363.53
235.8000	-3.06143E+006	363.703
235.7000	-3.39495E+006	363.869
235.6000	-3.52817E+006	364.035
235.5000	-3.911E+006	364.201
235.4000	-4.33893E+006	364.374
235.3000	-4.54175E+006	364.556
235.2000	-4.39927E+006	364.739
235.1000	-4.40122E+006	364.923
235.0000	-4.87448E+006	365.103
234.9000	-4.88655E+006	365.284
234.8000	-4.6308E+006	365.471
234.7000	-4.40615E+006	365.661
234.6000	-3.94101E+006	365.847
234.5000	-3.36592E+006	366.037
234.4000	-3.18681E+006	366.225
234.3000	-3.05816E+006	366.407
234.2000	-2.80243E+006	366.592
234.1000	-2.45703E+006	366.79
234.0000	-2.69805E+006	366.981
233.9000	-2.4687E+006	367.174
233.8000	-2.37492E+006	367.373
233.7000	-2.64841E+006	367.568
233.6000	-2.75923E+006	367.76
233.5000	-3.01967E+006	367.954
233.4000	-3.04719E+006	368.142
233.3000	-2.9981E+006	368.334
233.2000	-2.87614E+006	368.538
233.1000	-3.07804E+006	368.734
233.0000	-3.32871E+006	368.927
232.9000	-3.36939E+006	369.112
232.8000	-3.23401E+006	369.308
232.7000	-2.82345E+006	369.503
232.6000	-2.56878E+006	369.703
232.5000	-2.8834E+006	369.901
232.4000	-3.2847E+006	370.083
232.3000	-3.67896E+006	370.268
232.2000	-4.04369E+006	370.449
232.1000	-4.19505E+006	370.645
232.0000	-4.52434E+006	370.839
231.9000	-4.57105E+006	371.041
231.8000	-5.20644E+006	371.236
231.7000	-5.57015E+006	371.432
231.6000	-5.38333E+006	371.638
231.5000	-5.06139E+006	371.841
231.4000	-4.95071E+006	372.042
231.3000	-5.338E+006	372.236
231.2000	-5.45542E+006	372.436
231.1000	-5.9345E+006	372.626
231.0000	-5.81569E+006	372.821
230.9000	-5.70726E+006	373.018
230.8000	-5.80083E+006	373.211
230.7000	-6.18729E+006	373.411
230.6000	-6.37295E+006	373.618
230.5000	-6.42238E+006	373.834
230.4000	-6.39155E+006	374.045
230.3000	-6.23269E+006	374.267
230.2000	-6.68441E+006	374.482
230.1000	-7.04084E+006	374.701
230.0000	-6.96598E+006	374.918
229.9000	-6.64419E+006	375.128
229.8000	-6.39543E+006	375.333
229.7000	-6.07538E+006	375.527
229.6000	-5.82859E+006	375.72
229.5000	-5.92419E+006	375.897
229.4000	-5.77581E+006	376.069
229.3000	-5.25574E+006	376.246
229.2000	-5.34351E+006	376.413
229.1000	-5.19513E+006	376.585
229.0000	-5.32914E+006	376.762
228.9000	-5.30306E+006	376.945
228.8000	-5.39128E+006	377.132
228.7000	-5.68252E+006	377.336
228.6000	-5.85197E+006	377.551
228.5000	-6.04047E+006	377.768
228.4000	-6.21618E+006	378.002
228.3000	-6.5911E+006	378.241
228.2000	-6.37709E+006	378.488
228.1000	-6.26567E+006	378.744
228.0000	-5.94921E+006	378.997
227.9000	-5.31245E+006	379.245
227.8000	-4.97593E+006	379.482
227.7000	-4.86648E+006	379.729
227.6000	-4.93833E+006	379.965
227.5000	-4.82365E+006	380.192
227.4000	-4.9788E+006	380.414
227.3000	-5.27358E+006	380.634
227.2000	-5.58705E+006	380.852
227.1000	-6.25747E+006	381.066
227.0000	-6.6927E+006	381.281
226.9000	-6.88923E+006	381.494
226.8000	-6.60399E+006	381.713
226.7000	-6.23199E+006	381.935
226.6000	-6.1616E+006	382.153
226.5000	-6.58874E+006	382.363
226.4000	-7.26205E+006	382.566
226.3000	-7.41439E+006	382.774
226.2000	-7.46651E+006	382.986
226.1000	-8.09298E+006	383.197
226.0000	-8.44631E+006	383.405
225.9000	-8.71579E+006	383.609
225.8000	-9.15208E+006	383.811
225.7000	-9.10804E+006	384.022
225.6000	-8.41518E+006	384.239
225.5000	-7.59682E+006	384.46
225.4000	-7.35208E+006	384.676
225.3000	-6.8475E+006	384.899
225.2000	-6.67379E+006	385.124
225.1000	-6.63119E+006	385.349
225.0000	-6.42404E+006	385.575
224.9000	-6.26222E+006	385.797
224.8000	-6.5775E+006	386.014
224.7000	-7.15845E+006	386.233
224.6000	-7.66445E+006	386.448
224.5000	-7.48267E+006	386.664
224.4000	-6.85046E+006	386.884
224.3000	-6.43797E+006	387.104
224.2000	-6.45127E+006	387.317
224.1000	-6.75006E+006	387.529
224.0000	-6.80927E+006	387.747
223.9000	-6.57101E+006	387.966
223.8000	-6.63569E+006	388.187
223.7000	-6.67429E+006	388.408
223.6000	-7.14606E+006	388.623
223.5000	-7.54825E+006	388.835
223.4000	-7.80242E+006	389.049
223.3000	-8.05552E+006	389.259
223.2000	-7.59641E+006	389.477
223.1000	-7.68814E+006	389.687
223.0000	-7.51067E+006	389.902
222.9000	-7.17854E+006	390.121
222.8000	-6.90654E+006	390.337
222.7000	-6.33593E+006	390.555
222.6000	-6.18784E+006	390.771
222.5000	-6.30436E+006	390.99
222.4000	-6.5655E+006	391.203
222.3000	-6.88654E+006	391.416
222.2000	-6.84705E+006	391.629
222.1000	-6.92404E+006	391.84
222.0000	-7.06088E+006	392.05
221.9000	-7.60903E+006	392.249
221.8000	-8.27491E+006	392.448
221.7000	-8.60028E+006	392.654
221.6000	-8.69596E+006	392.865
221.5000	-8.57232E+006	393.082
221.4000	-8.17883E+006	393.295
221.3000	-8.0922E+006	393.502
221.2000	-8.44626E+006	393.708
221.1000	-8.83942E+006	393.921
221.0000	-8.78688E+006	394.137
220.9000	-8.18035E+006	394.355
220.8000	-7.6843E+006	394.574
220.7000	-7.61231E+006	394.779
220.6000	-7.63358E+006	394.988
220.5000	-7.67824E+006	395.206
220.4000	-7.24503E+006	395.421
220.3000	-6.83049E+006	395.641
220.2000	-6.26673E+006	395.865
220.1000	-6.34853E+006	396.078
220.0000	-6.51431E+006	396.295
219.9000	-6.58167E+006	396.518
219.8000	-6.33687E+006	396.742
219.7000	-6.29459E+006	396.96
219.6000	-6.68057E+006	397.173
219.5000	-6.93027E+006	397.391
219.4000	-7.16375E+006	397.61
219.3000	-7.69717E+006	397.824
219.2000	-7.96947E+006	398.041
219.1000	-7.79262E+006	398.258
219.0000	-8.10629E+006	398.476
218.9000	-8.65539E+006	398.688
218.8000	-8.42775E+006	398.912
218.7000	-7.97769E+006	399.131
218.6000	-7.5643E+006	399.348
218.5000	-7.139E+006	399.564
218.4000	-6.53711E+006	399.785
218.3000	-6.3208E+006	400
218.2000	-5.62599E+006	400.225
218.1000	-5.34528E+006	400.443
218.0000	-4.96679E+006	400.668
217.9000	-4.93387E+006	400.888
217.8000	-5.4032E+006	401.095
217.7000	-5.21051E+006	401.312
217.6000	-4.96206E+006	401.527
217.5000	-5.28107E+006	401.742
217.4000	-5.54342E+006	401.953
217.3000	-5.82008E+006	402.163
217.2000	-5.74088E+006	402.378
217.1000	-5.84559E+006	402.589
217.0000	-6.07277E+006	402.802
216.9000	-5.96587E+006	403.023
216.8000	-5.98406E+006	403.241
216.7000	-5.80113E+006	403.459
216.6000	-4.92262E+006	403.687
216.5000	-4.51477E+006	403.909
216.4000	-4.10354E+006	404.127
216.3000	-3.97715E+006	404.343
216.2000	-3.27394E+006	404.571
216.1000	-2.96713E+006	404.79
216.0000	-3.33993E+006	405.003
215.9000	-3.71264E+006	405.212
215.8000	-4.01265E+006	405.423
215.7000	-4.39082E+006	405.632
215.6000	-5.06446E+006	405.841
215.5000	-5.80351E+006	406.052
215.4000	-6.36129E+006	406.26
215.3000	-6.52126E+006	406.477
215.2000	-5.88658E+006	406.702
215.1000	-5.41493E+006	406.93
215.0000	-5.35226E+006	407.155
214.9000	-5.43321E+006	407.381
214.8000	-5.1943E+006	407.611
214.7000	-4.84472E+006	407.841
214.6000	-4.74055E+006	408.07
214.5000	-4.90774E+006	408.296
214.4000	-5.42939E+006	408.522
214.3000	-5.92151E+006	408.751
214.2000	-6.53915E+006	408.977
214.1000	-6.7834E+006	409.206
214.0000	-7.08287E+006	409.435
213.9000	-7.42159E+006	409.668
213.8000	-7.80735E+006	409.903
213.7000	-8.30584E+006	410.14
213.6000	-8.72194E+006	410.377
213.5000	-8.10185E+006	410.624
213.4000	-7.30247E+006	410.873
213.3000	-6.62704E+006	411.127
213.2000	-6.22755E+006	411.381
213.1000	-5.70752E+006	411.637
213.0000	-5.55385E+006	411.888
212.9000	-4.84233E+006	412.148
212.8000	-4.03211E+006	412.403
212.7000	-4.37382E+006	412.649
212.6000	-4.2042E+006	412.898
212.5000	-3.97039E+006	413.152
212.4000	-4.11245E+006	413.4
212.3000	-3.82575E+006	413.653
212.2000	-3.59781E+006	413.909
212.1000	-2.99989E+006	414.168
212.0000	-2.88955E+006	414.432
211.9000	-2.64186E+006	414.702
211.8000	-2.97923E+006	414.964
211.7000	-3.90473E+006	415.223
211.6000	-4.50497E+006	415.489
211.5000	-4.69504E+006	415.754
211.4000	-4.54653E+006	416.029
211.3000	-5.12174E+006	416.296
211.2000	-6.00901E+006	416.552
211.1000	-5.85325E+006	416.824
211.0000	-5.63064E+006	417.105
210.9000	-5.45824E+006	417.381
210.8000	-5.20989E+006	417.659
210.7000	-4.71427E+006	417.948
210.6000	-5.09195E+006	418.224
210.5000	-5.09768E+006	418.512
210.4000	-4.43187E+006	418.807
210.3000	-4.51378E+006	419.101
210.2000	-4.99304E+006	419.382
210.1000	-5.21584E+006	419.671
210.0000	-5.01104E+006	419.968
209.9000	-5.04325E+006	420.263
209.8000	-5.64659E+006	420.548
209.7000	-6.11863E+006	420.838
209.6000	-6.19543E+006	421.132
209.5000	-6.12139E+006	421.429
209.4000	-6.08526E+006	421.726
209.3000	-6.5338E+006	422.018
209.2000	-6.65467E+006	422.316
209.1000	-6.68826E+006	422.612
209.0000	-6.06874E+006	422.914
208.9000	-5.62757E+006	423.221
208.8000	-5.83584E+006	423.519
208.7000	-6.85941E+006	423.812
208.6000	-7.19816E+006	424.118
208.5000	-6.74078E+006	424.437
208.4000	-6.48501E+006	424.749
208.3000	-6.92456E+006	425.063
208.2000	-7.6251E+006	425.378
208.1000	-8.40898E+006	425.69
208.0000	-8.60774E+006	426.006
207.9000	-8.03022E+006	426.33
207.8000	-7.37879E+006	426.655
207.7000	-7.97234E+006	426.967
207.6000	-8.0109E+006	427.287
207.5000	-7.77234E+006	427.606
207.4000	-7.68225E+006	427.92
207.3000	-6.87247E+006	428.242
207.2000	-6.21794E+006	428.564
207.1000	-6.08593E+006	428.88
207.0000	-6.6222E+006	429.192
206.9000	-6.91457E+006	429.505
206.8000	-6.64618E+006	429.821
206.7000	-7.24564E+006	430.129
206.6000	-7.4604E+006	430.442
206.5000	-7.58795E+006	430.759
206.4000	-7.68737E+006	431.077
206.3000	-7.69228E+006	431.4
206.2000	-7.60693E+006	431.717
206.1000	-6.93352E+006	432.036
206.0000	-6.45807E+006	432.353
205.9000	-5.97295E+006	432.674
205.8000	-5.63394E+006	432.996
205.7000	-5.21913E+006	433.318
205.6000	-4.59888E+006	433.642
205.5000	-3.97164E+006	433.966
205.4000	-3.40885E+006	434.296
205.3000	-3.47845E+006	434.623
205.2000	-3.48557E+006	434.951
205.1000	-3.37553E+006	435.286
205.0000	-3.3561E+006	435.619
204.9000	-3.25973E+006	435.951
204.8000	-3.47425E+006	436.283
204.7000	-3.87016E+006	436.62
204.6000	-4.23968E+006	436.951
204.5000	-4.58373E+006	437.283
204.4000	-4.4134E+006	437.625
204.3000	-4.74347E+006	437.961
204.2000	-4.73639E+006	438.301
204.1000	-4.85516E+006	438.637
204.0000	-4.87126E+006	438.981
203.9000	-5.26064E+006	439.319
203.8000	-5.76273E+006	439.659
203.7000	-5.7404E+006	440.006
203.6000	-5.84306E+006	440.36
203.5000	-5.16725E+006	440.721
203.4000	-5.46387E+006	441.076
203.3000	-5.21061E+006	441.443
203.2000	-4.53286E+006	441.818
203.1000	-4.23998E+006	442.19
203.0000	-3.23493E+006	442.571
202.9000	-2.21225E+006	442.954
202.8000	-1.38127E+006	443.327
202.7000	-1.05312E+006	443.706
202.6000	-767182	444.08
202.5000	-104557	444.457
202.4000	-378486	444.83
202.3000	-1.09387E+006	445.202
202.2000	-1.3351E+006	445.578
202.1000	-1.96252E+006	445.951
202.0000	-2.64092E+006	446.329
201.9000	-3.04881E+006	446.718
201.8000	-2.3548E+006	447.122
201.7000	-2.38461E+006	447.525
201.6000	-1.48006E+006	447.944
201.5000	-80519.8	448.366
201.4000	906176	448.787
201.3000	1.59135E+006	449.214
201.2000	2.31304E+006	449.647
201.1000	2.81183E+006	450.079
201.0000	2.54931E+006	450.503
200.9000	1.85694E+006	450.93
200.8000	721601	451.355
200.7000	-569687	451.79
200.6000	-258572	452.249
200.5000	459064	452.721
200.4000	1.21976E+006	453.201
200.3000	1.98437E+006	453.69
200.2000	2.36032E+006	454.184
200.1000	3.47812E+006	454.683
200.0000	4.78387E+006	455.187
199.9000	5.53997E+006	455.685
199.8000	5.76631E+006	456.175
199.7000	5.61452E+006	456.652
199.6000	5.67466E+006	457.128
199.5000	5.7523E+006	457.609
199.4000	5.55482E+006	458.087
199.3000	5.16267E+006	458.568
199.2000	5.07572E+006	459.061
199.1000	5.13942E+006	459.564
199.0000	4.88665E+006	460.077
198.9000	5.03902E+006	460.61
198.8000	4.86289E+006	461.159
198.7000	4.59737E+006	461.721
198.6000	4.997E+006	462.305
198.5000	5.05403E+006	462.904
198.4000	5.52049E+006	463.522
198.3000	5.16281E+006	464.143
198.2000	5.09033E+006	464.797
198.1000	5.01063E+006	465.477
198.0000	4.79327E+006	466.181
197.9000	4.79005E+006	466.912
197.8000	3.92925E+006	467.651
197.7000	4.9714E+006	468.421
197.6000	5.40596E+006	469.195
197.5000	5.25961E+006	469.964
197.4000	6.30899E+006	470.729
197.3000	7.03179E+006	471.466
197.2000	8.34996E+006	472.173
197.1000	9.6203E+006	472.844
197.0000	1.13101E+007	473.498
196.9000	1.08357E+007	474.13
196.8000	9.85439E+006	474.758
196.7000	9.43546E+006	475.41
196.6000	9.72025E+006	476.09
196.5000	1.02272E+007	476.812
196.4000	9.79169E+006	477.582
196.3000	9.33938E+006	478.41
196.2000	8.78236E+006	479.299
196.1000	8.54975E+006	480.244
196.0000	9.51894E+006	481.273
195.9000	9.96896E+006	482.378
195.8000	1.01802E+007	483.582
195.7000	9.30696E+006	484.895
195.6000	9.5412E+006	486.325
195.5000	8.35155E+006	487.85
195.4000	7.91721E+006	489.459
195.3000	8.37855E+006	491.119
195.2000	7.96635E+006	492.79
195.1000	8.48267E+006	494.438
195.0000	8.56202E+006	495.989
194.9000	8.89705E+006	497.379
194.8000	8.70628E+006	498.596
194.7000	8.76419E+006	499.644
194.6000	9.20105E+006	500.575
194.5000	8.83614E+006	501.414
194.4000	9.47338E+006	502.216
194.3000	1.04828E+007	503.007
194.2000	1.08811E+007	503.856
194.1000	1.15105E+007	504.833
194.0000	1.28458E+007	506.004
193.9000	1.37884E+007	507.389
193.8000	1.57287E+007	509.008
193.7000	1.65828E+007	510.883
193.6000	1.74102E+007	513.04
193.5000	1.85813E+007	515.535
193.4000	1.94533E+007	518.401
193.3000	2.00299E+007	521.619
193.2000	2.1791E+007	525.14
193.1000	2.12758E+007	528.845
193.0000	1.91705E+007	532.653
192.9000	1.83576E+007	536.456
192.8000	1.9437E+007	540.125
192.7000	1.87253E+007	543.436
192.6000	1.7914E+007	546.211
192.5000	1.91703E+007	548.415
192.4000	1.94776E+007	550.082
192.3000	1.96925E+007	551.311
192.2000	2.18342E+007	552.22
192.1000	2.10464E+007	552.889
192.0000	1.96229E+007	553.491
191.9000	1.92732E+007	554.241
191.8000	2.11417E+007	555.378
191.7000	2.01497E+007	557.02
191.6000	2.07812E+007	559.238
191.5000	1.94511E+007	561.991
191.4000	1.92575E+007	565.327
191.3000	2.14082E+007	569.323
191.2000	2.33479E+007	573.969
191.1000	2.3533E+007	579.218
191.0000	1.96582E+007	584.946
190.9000	1.91683E+007	591.075
190.8000	1.97782E+007	597.431
190.7000	2.10729E+007	603.822
190.6000	1.98651E+007	610.034
190.5000	1.71329E+007	615.764
190.4000	1.10927E+007	620.73
190.3000	6.60597E+006	624.852
190.2000	8.71265E+006	628.208
190.1000	7.37273E+006	630.837
190.0000	3.7037E+006	632.905

##### Extended Information
[Comments]
Sample name	ACE2
Comment
User
Division
Company	CSIR-IMTECH

[Detailed Information]
Creation date	4/8/2024 5:56 PM

Data array type	Linear data array * 2
Horizontal axis	Wavelength [nm]
Vertical axis(1)	Mol. Ellip.
Vertical axis(2)	HT [V]
Start	350 nm
End	190 nm
Data interval	0.1 nm
Data points	1601    

[Measurement Information]
Instrument Name	JASCO CD
Model Name	J-815
Serial No.	B063061168

Accessory	PTC-423S
Accessory S/N	C013945-01
  Temperature	37.62 C
  Control Sonsor	Cell
  Monitor Sensor	Cell
  Start Mode	Start immediately
  Cell Length	10 mm

Measurement date	4/8/2024 5:55 PM

Photometric Mode	CD, HT
Measure Range	350 - 190 nm
Data pitch	0.1 nm
Sensitivity	Standard
D.I.T.	1 sec
Bandwidth	1.00 nm
Start Mode	Immediately
Scanning Speed	50 nm/min
Baseline Correction	None
Shutter Control	Auto
CD Detector	PMT
PMT Voltage	Auto
Accumulations	3
Concentration	0.27 umol/L

