TITLE,ACE2_D2_0.3uM
DATA TYPE,
ORIGIN,JASCO
OWNER,
DATE,24/02/26
TIME,15:53:19
SPECTROMETER/DATA SYSTEM,
LOCALE,1033
RESOLUTION,
DELTAX,-0.1
XUNITS,NANOMETERS
YUNITS,CD [mdeg]
Y2UNITS,HT [V]
FIRSTX,  350.0000
LASTX,  190.0000
NPOINTS,    1601
FIRSTY,     1.27412
MAXY,    19.10072
MINY,    -3.58773
XYDATA
350.0000,1.27412,468.563
349.9000,1.05827,467.987
349.8000,1.05723,467.142
349.7000,1.38434,466.297
349.6000,1.37966,465.667
349.5000,0.572236,465.088
349.4000,-0.174226,464.199
349.3000,-0.597876,463.578
349.2000,-0.910462,463.051
349.1000,-1.07605,462.234
349.0000,-0.900644,461.628
348.9000,-0.94286,461.082
348.8000,-1.23937,460.23
348.7000,-1.135,459.372
348.6000,-0.81383,458.757
348.5000,-0.753933,458.22
348.4000,-0.558002,457.365
348.3000,-0.313253,456.728
348.2000,-0.467253,456.155
348.1000,-0.80706,455.312
348.0000,-0.944093,454.694
347.9000,-0.705311,454.169
347.8000,-0.791914,453.375
347.7000,-0.673293,452.576
347.6000,-0.553815,452.017
347.5000,-0.535089,451.544
347.4000,-0.304363,450.781
347.3000,0.0545095,450.205
347.2000,0.0755015,449.693
347.1000,0.222391,448.937
347.0000,0.551884,448.377
346.9000,0.479634,447.88
346.8000,0.379221,447.1
346.7000,0.385105,446.318
346.6000,0.102138,445.732
346.5000,-0.141982,445.008
346.4000,-0.239569,444.282
346.3000,-0.620318,443.724
346.2000,-0.88225,442.98
346.1000,-1.00469,442.223
346.0000,-0.729257,441.685
345.9000,-0.837904,441.218
345.8000,-0.848936,440.483
345.7000,-1.06455,439.928
345.6000,-1.08364,439.447
345.5000,-0.941341,438.75
345.4000,-0.71977,438.241
345.3000,-0.694244,437.808
345.2000,-0.779657,437.122
345.1000,-0.808207,436.424
345.0000,-0.734101,435.917
344.9000,-0.584764,435.245
344.8000,-0.314507,434.558
344.7000,-0.068281,434.018
344.6000,0.0889455,433.343
344.5000,0.121836,432.66
344.4000,0.0974223,432.152
344.3000,0.167668,431.497
344.2000,0.302086,430.836
344.1000,0.412018,430.349
344.0000,0.51298,429.728
343.9000,0.552183,429.099
343.8000,0.494312,428.63
343.7000,0.524033,428.219
343.6000,0.613739,427.596
343.5000,0.639943,427.143
343.4000,0.498645,426.754
343.3000,0.314853,426.125
343.2000,0.0317413,425.661
343.1000,-0.324903,425.257
343.0000,-0.557592,424.681
342.9000,-0.669724,424.099
342.8000,-0.714204,423.663
342.7000,-0.766895,423.067
342.6000,-0.900199,422.458
342.5000,-0.915113,422.023
342.4000,-0.610814,421.484
342.3000,-0.146704,420.941
342.2000,0.0801219,420.518
342.1000,-0.00537211,419.957
342.0000,-0.0991893,419.393
341.9000,-0.207384,418.989
341.8000,-0.0204305,418.469
341.7000,0.21287,417.939
341.6000,0.235944,417.536
341.5000,0.0698517,416.986
341.4000,-0.0254506,416.424
341.3000,0.0711558,416.002
341.2000,-0.0336304,415.46
341.1000,0.0817932,414.914
341.0000,-0.0973633,414.506
340.9000,-0.165215,413.966
340.8000,-0.126694,413.421
340.7000,-0.0492605,413.018
340.6000,0.0883138,412.523
340.5000,0.0111511,412.013
340.4000,0.212413,411.634
340.3000,0.375417,411.121
340.2000,0.53415,410.593
340.1000,0.759094,410.207
340.0000,0.690498,409.713
339.9000,0.612634,409.209
339.8000,0.434671,408.82
339.7000,0.405426,408.334
339.6000,0.334301,407.837
339.5000,0.172798,407.469
339.4000,0.0341431,406.996
339.3000,-0.256008,406.507
339.2000,-0.429812,405.979
339.1000,-0.433532,405.513
339.0000,-0.507682,405.038
338.9000,-0.505752,404.518
338.8000,-0.549997,404.051
338.7000,-0.629017,403.581
338.6000,-0.572847,403.072
338.5000,-0.246313,402.626
338.4000,0.0652608,402.296
338.3000,0.0992299,401.884
338.2000,0.140277,401.467
338.1000,0.266018,401.169
338.0000,0.35085,400.758
337.9000,0.414571,400.34
337.8000,0.434133,400.045
337.7000,0.331708,399.646
337.6000,0.170093,399.239
337.5000,0.0514791,398.933
337.4000,0.0124766,398.527
337.3000,-0.131288,398.107
337.2000,-0.164588,397.652
337.1000,-0.143898,397.246
337.0000,-0.276946,396.827
336.9000,-0.351199,396.39
336.8000,-0.362354,396.005
336.7000,-0.398819,395.614
336.6000,-0.464364,395.181
336.5000,-0.452114,394.795
336.4000,-0.4781,394.521
336.3000,-0.656246,394.158
336.2000,-0.783439,393.795
336.1000,-0.741141,393.529
336.0000,-0.902596,393.173
335.9000,-0.911744,392.8
335.8000,-0.814303,392.386
335.7000,-0.729231,392.018
335.6000,-0.652071,391.644
335.5000,-0.580572,391.241
335.4000,-0.323829,390.883
335.3000,-0.112063,390.52
335.2000,0.0392263,390.135
335.1000,0.0589579,389.794
335.0000,0.0449544,389.564
334.9000,0.0451579,389.238
334.8000,0.0553569,388.9
334.7000,0.130619,388.537
334.6000,0.00818176,388.214
334.5000,-0.0691549,387.883
334.4000,-0.0882243,387.509
334.3000,-0.0129954,387.171
334.2000,-0.0673848,386.822
334.1000,-0.174863,386.446
334.0000,-0.0652201,386.122
333.9000,-0.081016,385.878
333.8000,0.14651,385.559
333.7000,0.260509,385.225
333.6000,0.0776265,384.848
333.5000,-0.0281881,384.517
333.4000,0.0154622,384.188
333.3000,0.107106,383.833
333.2000,-0.00562337,383.517
333.1000,-0.0417246,383.199
333.0000,-0.1662,382.865
332.9000,-0.359086,382.568
332.8000,-0.343305,382.243
332.7000,-0.305231,381.96
332.6000,-0.338752,381.665
332.5000,-0.473733,381.34
332.4000,-0.527195,381.058
332.3000,-0.440204,380.772
332.2000,-0.271572,380.449
332.1000,-0.191691,380.152
332.0000,-0.0897868,379.823
331.9000,0.0643524,379.544
331.8000,0.151889,379.262
331.7000,0.300684,378.957
331.6000,0.271739,378.679
331.5000,0.21351,378.283
331.4000,0.0192668,377.964
331.3000,-0.204879,377.682
331.2000,-0.460369,377.39
331.1000,-0.636921,377.136
331.0000,-0.604218,376.874
330.9000,-0.588617,376.588
330.8000,-0.495922,376.331
330.7000,-0.449899,376.045
330.6000,-0.453777,375.793
330.5000,-0.476927,375.536
330.4000,-0.208255,375.248
330.3000,-0.105852,374.99
330.2000,-0.237051,374.626
330.1000,-0.345904,374.335
330.0000,-0.330303,374.081
329.9000,-0.206343,373.793
329.8000,-0.206348,373.538
329.7000,-0.0450968,373.202
329.6000,0.0461121,372.939
329.5000,0.0228709,372.707
329.4000,-0.0574076,372.428
329.3000,-0.0864431,372.181
329.2000,-0.154994,371.846
329.1000,-0.408328,371.588
329.0000,-0.619805,371.37
328.9000,-0.737159,371.111
328.8000,-0.806885,370.871
328.7000,-0.900412,370.573
328.6000,-0.785963,370.357
328.5000,-0.741607,370.182
328.4000,-0.842531,369.923
328.3000,-0.773127,369.689
328.2000,-0.596924,369.443
328.1000,-0.407431,369.275
328.0000,-0.415838,369.137
327.9000,-0.36254,368.862
327.8000,-0.223976,368.599
327.7000,-0.0941203,368.357
327.6000,0.0204112,368.223
327.5000,0.0723114,368.136
327.4000,0.0489827,367.847
327.3000,-0.0335286,367.54
327.2000,-0.0913717,367.259
327.1000,-0.009552,367.118
327.0000,0.00777893,367.038
326.9000,-0.0357422,366.757
326.8000,-0.199557,366.438
326.7000,-0.343936,366.137
326.6000,-0.458167,365.99
326.5000,-0.53786,365.925
326.4000,-0.558629,365.644
326.3000,-0.695418,365.325
326.2000,-1.00521,365.036
326.1000,-1.10008,364.885
326.0000,-0.996752,364.599
325.9000,-0.868792,364.293
325.8000,-0.779085,363.974
325.7000,-0.709095,363.692
325.6000,-0.665848,363.556
325.5000,-0.575771,363.289
325.4000,-0.368051,362.996
325.3000,-0.301333,362.68
325.2000,-0.351432,362.564
325.1000,-0.338948,362.533
325.0000,-0.408731,362.304
324.9000,-0.404158,362.038
324.8000,-0.435239,361.774
324.7000,-0.482203,361.666
324.6000,-0.478933,361.634
324.5000,-0.577875,361.389
324.4000,-0.508535,361.105
324.3000,-0.615768,360.812
324.2000,-0.683565,360.659
324.1000,-0.642582,360.383
324.0000,-0.55249,360.084
323.9000,-0.665102,359.76
323.8000,-0.826775,359.464
323.7000,-0.813254,359.319
323.6000,-0.759579,359.077
323.5000,-0.685194,358.816
323.4000,-0.520585,358.574
323.3000,-0.41673,358.478
323.2000,-0.411271,358.45
323.1000,-0.138584,358.275
323.0000,0.121366,358.067
322.9000,0.17765,357.82
322.8000,0.0990417,357.687
322.7000,-0.0347595,357.443
322.6000,-0.10344,357.163
322.5000,-0.120472,356.863
322.4000,-0.0729889,356.565
322.3000,-0.165735,356.365
322.2000,-0.278407,356.024
322.1000,-0.340705,355.686
322.0000,-0.389132,355.372
321.9000,-0.311116,355.185
321.8000,-0.272542,354.949
321.7000,-0.228975,354.714
321.6000,-0.355927,354.472
321.5000,-0.369544,354.237
321.4000,-0.395445,354.154
321.3000,-0.357255,354.041
321.2000,-0.276729,353.919
321.1000,-0.32448,353.761
321.0000,-0.396607,353.696
320.9000,-0.465995,353.556
320.8000,-0.467884,353.412
320.7000,-0.429826,353.258
320.6000,-0.422438,353.095
320.5000,-0.333369,353.012
320.4000,-0.269739,352.818
320.3000,-0.194305,352.631
320.2000,-0.063797,352.436
320.1000,0.0463867,352.32
320.0000,0.123874,352.16
319.9000,0.103561,352.006
319.8000,0.0539317,351.812
319.7000,0.00954183,351.61
319.6000,-0.162963,351.417
319.5000,-0.29888,351.28
319.4000,-0.378129,351.15
319.3000,-0.426052,350.972
319.2000,-0.500852,350.85
319.1000,-0.561558,350.662
319.0000,-0.642823,350.495
318.9000,-0.750812,350.291
318.8000,-0.81855,350.152
318.7000,-0.752899,349.924
318.6000,-0.63405,349.689
318.5000,-0.580181,349.474
318.4000,-0.53895,349.274
318.3000,-0.630125,349.072
318.2000,-0.668508,348.906
318.1000,-0.644061,348.773
318.0000,-0.47854,348.606
317.9000,-0.478507,348.519
317.8000,-0.527967,348.407
317.7000,-0.612078,348.302
317.6000,-0.653819,348.132
317.5000,-0.576212,348.008
317.4000,-0.485784,347.839
317.3000,-0.40712,347.664
317.2000,-0.400058,347.461
317.1000,-0.350774,347.269
317.0000,-0.256377,347.039
316.9000,-0.296641,346.822
316.8000,-0.386969,346.613
316.7000,-0.366352,346.424
316.6000,-0.360387,346.256
316.5000,-0.268532,346.11
316.4000,-0.316873,345.933
316.3000,-0.401382,345.773
316.2000,-0.437622,345.642
316.1000,-0.36722,345.549
316.0000,-0.265996,345.488
315.9000,-0.255575,345.347
315.8000,-0.290778,345.224
315.7000,-0.315751,345.063
315.6000,-0.288699,344.955
315.5000,-0.238142,344.791
315.4000,-0.188371,344.648
315.3000,-0.182927,344.442
315.2000,-0.207423,344.226
315.1000,-0.281797,344.031
315.0000,-0.187701,343.862
314.9000,-0.0776357,343.704
314.8000,-0.117568,343.554
314.7000,-0.229171,343.388
314.6000,-0.391124,343.245
314.5000,-0.589107,343.117
314.4000,-0.603966,343.013
314.3000,-0.504881,342.867
314.2000,-0.480064,342.732
314.1000,-0.515176,342.567
314.0000,-0.510621,342.407
313.9000,-0.330668,342.232
313.8000,-0.165142,342.078
313.7000,0.0611684,341.872
313.6000,0.22879,341.67
313.5000,0.223263,341.477
313.4000,0.195365,341.307
313.3000,0.0625509,341.157
313.2000,-0.0702006,341.021
313.1000,-0.133074,340.864
313.0000,-0.257743,340.726
312.9000,-0.322922,340.611
312.8000,-0.388766,340.52
312.7000,-0.298073,340.391
312.6000,-0.251222,340.27
312.5000,-0.257795,340.115
312.4000,-0.206426,339.956
312.3000,-0.171193,339.774
312.2000,-0.175409,339.606
312.1000,-0.0828257,339.389
312.0000,-0.0473033,339.176
311.9000,-0.147136,338.971
311.8000,-0.159719,338.784
311.7000,-0.169986,338.627
311.6000,-0.172628,338.418
311.5000,-0.155316,338.267
311.4000,-0.149227,338.122
311.3000,-0.105588,338.032
311.2000,-0.0795898,337.91
311.1000,-0.0560303,337.825
311.0000,-0.0794322,337.732
310.9000,-0.0139872,337.644
310.8000,0.129642,337.551
310.7000,0.154135,337.475
310.6000,0.206301,337.356
310.5000,0.217433,337.243
310.4000,0.172269,337.134
310.3000,0.13715,337.04
310.2000,0.174665,336.958
310.1000,0.194778,336.883
310.0000,0.136233,336.789
309.9000,0.21535,336.714
309.8000,0.223537,336.654
309.7000,0.22492,336.549
309.6000,0.268275,336.47
309.5000,0.308975,336.374
309.4000,0.405912,336.288
309.3000,0.474337,336.13
309.2000,0.505644,336.01
309.1000,0.387811,335.861
309.0000,0.338515,335.73
308.9000,0.333961,335.605
308.8000,0.249342,335.494
308.7000,0.234842,335.395
308.6000,0.196526,335.305
308.5000,0.00606181,335.194
308.4000,-0.107568,335.1
308.3000,-0.0358124,335.039
308.2000,0.0703735,334.922
308.1000,0.0890147,334.834
308.0000,0.118528,334.747
307.9000,0.107752,334.667
307.8000,0.0745188,334.516
307.7000,0.0679301,334.408
307.6000,0.0782989,334.296
307.5000,0.0573619,334.129
307.4000,0.00660909,334.011
307.3000,-0.0787008,333.908
307.2000,-0.0950439,333.817
307.1000,-0.126397,333.671
307.0000,-0.1553,333.575
306.9000,-0.167502,333.497
306.8000,-0.151912,333.444
306.7000,-0.0973338,333.372
306.6000,-0.127827,333.295
306.5000,-0.134785,333.223
306.4000,-0.0841583,333.094
306.3000,-0.0669322,333.004
306.2000,0.0268361,332.901
306.1000,0.0217519,332.801
306.0000,-0.0279785,332.654
305.9000,-0.0725118,332.555
305.8000,-0.0781433,332.482
305.7000,-0.0283285,332.354
305.6000,-0.0906209,332.27
305.5000,-0.1456,332.205
305.4000,-0.157033,332.164
305.3000,-0.155017,332.067
305.2000,-0.114397,332
305.1000,-0.0827494,331.932
305.0000,-0.104312,331.81
304.9000,-0.125297,331.731
304.8000,-0.135598,331.646
304.7000,-0.0401021,331.563
304.6000,-0.0637227,331.428
304.5000,-0.0280721,331.336
304.4000,-0.0597636,331.27
304.3000,-0.136731,331.146
304.2000,-0.244084,331.07
304.1000,-0.314126,331.017
304.0000,-0.339613,330.984
303.9000,-0.361193,330.897
303.8000,-0.350666,330.83
303.7000,-0.451843,330.785
303.6000,-0.500948,330.68
303.5000,-0.474249,330.618
303.4000,-0.390037,330.554
303.3000,-0.303146,330.451
303.2000,-0.365092,330.346
303.1000,-0.435626,330.266
303.0000,-0.479199,330.221
302.9000,-0.448573,330.123
302.8000,-0.424806,330.055
302.7000,-0.4846,330.009
302.6000,-0.518802,329.921
302.5000,-0.582272,329.869
302.4000,-0.556524,329.816
302.3000,-0.494381,329.723
302.2000,-0.509878,329.629
302.1000,-0.563266,329.551
302.0000,-0.539558,329.497
301.9000,-0.414253,329.406
301.8000,-0.331856,329.337
301.7000,-0.332191,329.286
301.6000,-0.284616,329.195
301.5000,-0.22714,329.146
301.4000,-0.156722,329.104
301.3000,-0.052769,329.028
301.2000,-0.0793966,328.961
301.1000,-0.0768178,328.905
301.0000,-0.129568,328.876
300.9000,-0.0608164,328.807
300.8000,-0.0209473,328.736
300.7000,-0.0273814,328.681
300.6000,-0.0467997,328.603
300.5000,-0.0562551,328.541
300.4000,-0.0331085,328.495
300.3000,-0.116573,328.412
300.2000,-0.0822378,328.336
300.1000,-0.086023,328.277
300.0000,-0.0906179,328.215
299.9000,-0.134671,328.162
299.8000,-0.21155,328.11
299.7000,-0.252431,328.042
299.6000,-0.303454,327.981
299.5000,-0.262913,327.924
299.4000,-0.25675,327.881
299.3000,-0.328155,327.813
299.2000,-0.406522,327.762
299.1000,-0.3711,327.728
299.0000,-0.311128,327.665
298.9000,-0.261239,327.622
298.8000,-0.246814,327.593
298.7000,-0.242143,327.542
298.6000,-0.314596,327.495
298.5000,-0.297872,327.455
298.4000,-0.256641,327.4
298.3000,-0.295309,327.344
298.2000,-0.316856,327.294
298.1000,-0.331027,327.239
298.0000,-0.33944,327.189
297.9000,-0.321096,327.148
297.8000,-0.275494,327.086
297.7000,-0.331282,327.034
297.6000,-0.347322,327.001
297.5000,-0.352554,326.943
297.4000,-0.388975,326.9
297.3000,-0.465583,326.865
297.2000,-0.537123,326.805
297.1000,-0.582091,326.758
297.0000,-0.630298,326.716
296.9000,-0.646261,326.658
296.8000,-0.609479,326.612
296.7000,-0.496523,326.578
296.6000,-0.474289,326.556
296.5000,-0.43011,326.515
296.4000,-0.397497,326.486
296.3000,-0.437185,326.467
296.2000,-0.409349,326.433
296.1000,-0.399002,326.406
296.0000,-0.374361,326.387
295.9000,-0.396559,326.349
295.8000,-0.436207,326.293
295.7000,-0.449232,326.259
295.6000,-0.423317,326.223
295.5000,-0.395845,326.165
295.4000,-0.402401,326.1
295.3000,-0.376322,326.064
295.2000,-0.331729,326.015
295.1000,-0.325781,325.954
295.0000,-0.337335,325.919
294.9000,-0.31584,325.873
294.8000,-0.397455,325.813
294.7000,-0.4656,325.779
294.6000,-0.442931,325.754
294.5000,-0.3929,325.713
294.4000,-0.408036,325.682
294.3000,-0.393841,325.659
294.2000,-0.365087,325.618
294.1000,-0.33209,325.59
294.0000,-0.19601,325.575
293.9000,-0.0777079,325.535
293.8000,-0.0286011,325.507
293.7000,0.00956217,325.487
293.6000,0.0305949,325.444
293.5000,0.013148,325.391
293.4000,0.00970662,325.369
293.3000,0.0140605,325.331
293.2000,-0.0279277,325.286
293.1000,-0.0609416,325.27
293.0000,-0.0597341,325.232
292.9000,-0.0905965,325.192
292.8000,-0.201855,325.178
292.7000,-0.21116,325.158
292.6000,-0.310935,325.125
292.5000,-0.313106,325.074
292.4000,-0.372511,325.046
292.3000,-0.452605,325
292.2000,-0.525192,324.951
292.1000,-0.627841,324.927
292.0000,-0.686023,324.886
291.9000,-0.721927,324.834
291.8000,-0.697691,324.792
291.7000,-0.671511,324.78
291.6000,-0.671852,324.746
291.5000,-0.669134,324.708
291.4000,-0.662787,324.691
291.3000,-0.545516,324.645
291.2000,-0.440042,324.587
291.1000,-0.326829,324.525
291.0000,-0.296897,324.477
290.9000,-0.312958,324.404
290.8000,-0.269112,324.309
290.7000,-0.273546,324.21
290.6000,-0.19235,324.103
290.5000,-0.113889,323.975
290.4000,-0.0843618,323.849
290.3000,-0.0908813,323.744
290.2000,-0.0853811,323.62
290.1000,-0.147194,323.495
290.0000,-0.172089,323.387
289.9000,-0.158851,323.322
289.8000,-0.113867,323.276
289.7000,-0.167988,323.246
289.6000,-0.205044,323.259
289.5000,-0.266956,323.301
289.4000,-0.265545,323.359
289.3000,-0.200692,323.448
289.2000,-0.243567,323.547
289.1000,-0.222475,323.658
289.0000,-0.246332,323.756
288.9000,-0.23496,323.847
288.8000,-0.299968,323.925
288.7000,-0.298493,323.994
288.6000,-0.303674,324.039
288.5000,-0.305342,324.075
288.4000,-0.260438,324.088
288.3000,-0.236155,324.094
288.2000,-0.238684,324.092
288.1000,-0.265907,324.079
288.0000,-0.23165,324.064
287.9000,-0.16345,324.026
287.8000,-0.140793,324.005
287.7000,-0.0708181,323.987
287.6000,-0.108455,323.966
287.5000,-0.0996429,323.943
287.4000,-0.140584,323.926
287.3000,-0.118792,323.905
287.2000,-0.228131,323.888
287.1000,-0.220984,323.869
287.0000,-0.239101,323.839
286.9000,-0.310362,323.819
286.8000,-0.344661,323.803
286.7000,-0.405821,323.791
286.6000,-0.452809,323.76
286.5000,-0.413152,323.753
286.4000,-0.294175,323.757
286.3000,-0.257942,323.757
286.2000,-0.309236,323.761
286.1000,-0.313544,323.748
286.0000,-0.263032,323.748
285.9000,-0.265469,323.746
285.8000,-0.189557,323.744
285.7000,-0.181078,323.732
285.6000,-0.27267,323.701
285.5000,-0.307289,323.698
285.4000,-0.243535,323.703
285.3000,-0.191669,323.707
285.2000,-0.269804,323.695
285.1000,-0.289718,323.678
285.0000,-0.311586,323.683
284.9000,-0.367297,323.685
284.8000,-0.28689,323.693
284.7000,-0.255486,323.689
284.6000,-0.319534,323.669
284.5000,-0.373442,323.673
284.4000,-0.294638,323.686
284.3000,-0.271416,323.695
284.2000,-0.136862,323.695
284.1000,-0.0284719,323.684
284.0000,-0.0190358,323.669
283.9000,-0.0059672,323.672
283.8000,0.0524068,323.681
283.7000,0.135638,323.684
283.6000,0.144282,323.673
283.5000,0.281413,323.672
283.4000,0.316628,323.665
283.3000,0.235767,323.677
283.2000,0.236375,323.702
283.1000,0.188558,323.706
283.0000,0.162903,323.702
282.9000,0.178752,323.695
282.8000,0.207113,323.695
282.7000,0.13482,323.712
282.6000,0.0386271,323.73
282.5000,0.0522074,323.742
282.4000,0.0305695,323.737
282.3000,0.0205963,323.734
282.2000,0.00253398,323.733
282.1000,-0.0768453,323.749
282.0000,-0.185838,323.763
281.9000,-0.274808,323.762
281.8000,-0.251945,323.76
281.7000,-0.278495,323.753
281.6000,-0.281163,323.753
281.5000,-0.233893,323.756
281.4000,-0.186362,323.781
281.3000,-0.14462,323.798
281.2000,-0.0282928,323.805
281.1000,0.0707631,323.806
281.0000,0.0259318,323.806
280.9000,0.00851542,323.808
280.8000,0.0132874,323.809
280.7000,-0.0114248,323.813
280.6000,-0.000523885,323.822
280.5000,0.0458303,323.82
280.4000,-0.0025828,323.817
280.3000,-0.0312449,323.817
280.2000,0.0478119,323.813
280.1000,0.0967489,323.807
280.0000,0.16926,323.803
279.9000,0.186064,323.797
279.8000,0.176845,323.779
279.7000,0.155138,323.776
279.6000,0.237424,323.773
279.5000,0.234303,323.77
279.4000,0.0796855,323.765
279.3000,-0.0474274,323.759
279.2000,-0.118949,323.757
279.1000,-0.112297,323.757
279.0000,-0.122941,323.755
278.9000,-0.0862081,323.745
278.8000,-0.136719,323.748
278.7000,-0.170374,323.752
278.6000,-0.0480204,323.765
278.5000,0.0164317,323.78
278.4000,0.0927327,323.793
278.3000,0.0651998,323.806
278.2000,0.0285512,323.817
278.1000,-0.00755514,323.828
278.0000,-0.0358714,323.827
277.9000,-0.0811941,323.823
277.8000,-0.160441,323.819
277.7000,-0.136389,323.816
277.6000,-0.0606445,323.832
277.5000,-0.0757833,323.844
277.4000,-0.0824636,323.857
277.3000,-0.0547424,323.874
277.2000,-0.0577087,323.887
277.1000,-0.013328,323.905
277.0000,0.0147308,323.921
276.9000,-0.00232442,323.936
276.8000,-0.0222534,323.936
276.7000,-0.0524994,323.932
276.6000,-0.0325765,323.934
276.5000,0.00110067,323.936
276.4000,-0.00902405,323.939
276.3000,0.00533447,323.939
276.2000,-0.0382823,323.939
276.1000,-0.0408518,323.944
276.0000,-0.107682,323.969
275.9000,-0.124853,323.997
275.8000,-0.0442017,324.022
275.7000,-0.0108602,324.046
275.6000,-0.0298126,324.069
275.5000,-0.0185893,324.089
275.4000,-0.0319316,324.111
275.3000,-0.0178975,324.13
275.2000,-0.0125753,324.137
275.1000,-0.00459493,324.136
275.0000,-0.055245,324.137
274.9000,-0.10696,324.143
274.8000,-0.141245,324.148
274.7000,-0.166265,324.151
274.6000,-0.182247,324.157
274.5000,-0.174905,324.165
274.4000,-0.189671,324.174
274.3000,-0.213173,324.183
274.2000,-0.269113,324.189
274.1000,-0.362095,324.198
274.0000,-0.378028,324.209
273.9000,-0.419918,324.222
273.8000,-0.432786,324.234
273.7000,-0.393049,324.245
273.6000,-0.361199,324.257
273.5000,-0.382192,324.265
273.4000,-0.44616,324.27
273.3000,-0.438279,324.275
273.2000,-0.371508,324.281
273.1000,-0.378178,324.287
273.0000,-0.401872,324.297
272.9000,-0.561931,324.308
272.8000,-0.570246,324.322
272.7000,-0.513474,324.342
272.6000,-0.423921,324.362
272.5000,-0.260742,324.386
272.4000,-0.174269,324.407
272.3000,-0.118477,324.434
272.2000,-0.0743947,324.458
272.1000,0.043924,324.481
272.0000,0.111631,324.5
271.9000,0.126636,324.513
271.8000,0.0870005,324.526
271.7000,0.0348674,324.546
271.6000,-0.0640167,324.564
271.5000,-0.119899,324.581
271.4000,-0.110612,324.593
271.3000,-0.0932343,324.604
271.2000,-0.0922078,324.614
271.1000,-0.0655538,324.625
271.0000,-0.0346344,324.633
270.9000,-0.0394653,324.623
270.8000,-0.0209056,324.615
270.7000,-0.0890839,324.607
270.6000,-0.14324,324.597
270.5000,-0.17562,324.585
270.4000,-0.226727,324.576
270.3000,-0.28629,324.566
270.2000,-0.378473,324.567
270.1000,-0.464452,324.578
270.0000,-0.508092,324.593
269.9000,-0.470703,324.608
269.8000,-0.32139,324.63
269.7000,-0.273182,324.649
269.6000,-0.182926,324.669
269.5000,-0.12093,324.695
269.4000,0.0397664,324.706
269.3000,0.17592,324.713
269.2000,0.185161,324.722
269.1000,0.21815,324.734
269.0000,0.169599,324.74
268.9000,0.0585734,324.756
268.8000,0.0304128,324.774
268.7000,-0.0203308,324.793
268.6000,-0.122054,324.816
268.5000,-0.259249,324.853
268.4000,-0.239336,324.896
268.3000,-0.187557,324.925
268.2000,-0.176598,324.958
268.1000,-0.111498,324.99
268.0000,-0.0249593,325.03
267.9000,-0.0399261,325.071
267.8000,-0.0827555,325.116
267.7000,-0.10323,325.164
267.6000,-0.129528,325.211
267.5000,-0.160646,325.267
267.4000,-0.201638,325.306
267.3000,-0.205249,325.347
267.2000,-0.153856,325.391
267.1000,-0.156227,325.436
267.0000,-0.0685201,325.484
266.9000,-0.0230672,325.527
266.8000,-0.0690063,325.567
266.7000,-0.0930695,325.588
266.6000,-0.0484456,325.628
266.5000,-0.0722463,325.678
266.4000,-0.167342,325.723
266.3000,-0.166484,325.77
266.2000,-0.185204,325.814
266.1000,-0.137971,325.865
266.0000,-0.0246155,325.898
265.9000,0.0857574,325.949
265.8000,0.112119,326.012
265.7000,0.137242,326.072
265.6000,0.166532,326.138
265.5000,0.119792,326.198
265.4000,0.10709,326.243
265.3000,0.151105,326.28
265.2000,0.0672445,326.334
265.1000,-0.00649312,326.401
265.0000,-0.0537231,326.457
264.9000,-0.0325623,326.521
264.8000,-0.0560872,326.563
264.7000,-0.102979,326.606
264.6000,-0.0968262,326.671
264.5000,-0.19544,326.751
264.4000,-0.222681,326.837
264.3000,-0.248776,326.892
264.2000,-0.228498,326.941
264.1000,-0.255079,326.994
264.0000,-0.271385,327.06
263.9000,-0.233341,327.137
263.8000,-0.245472,327.198
263.7000,-0.321704,327.247
263.6000,-0.359479,327.298
263.5000,-0.353972,327.36
263.4000,-0.344822,327.437
263.3000,-0.377234,327.497
263.2000,-0.381195,327.557
263.1000,-0.36574,327.618
263.0000,-0.234457,327.683
262.9000,-0.0984029,327.747
262.8000,-0.00286764,327.808
262.7000,0.0685191,327.861
262.6000,0.0637105,327.923
262.5000,0.0129374,328.001
262.4000,-0.0399984,328.071
262.3000,-0.0725911,328.144
262.2000,-0.124916,328.215
262.1000,-0.182116,328.299
262.0000,-0.183191,328.364
261.9000,-0.207283,328.438
261.8000,-0.204527,328.514
261.7000,-0.196261,328.573
261.6000,-0.113404,328.636
261.5000,-0.0213694,328.702
261.4000,-0.0518209,328.76
261.3000,-0.0443878,328.809
261.2000,-0.0746216,328.884
261.1000,-0.0592143,328.97
261.0000,-0.0407705,329.054
260.9000,0.0180898,329.132
260.8000,0.0495677,329.22
260.7000,0.00504456,329.313
260.6000,0.00768127,329.402
260.5000,0.0233846,329.492
260.4000,-0.022996,329.579
260.3000,-0.0356761,329.661
260.2000,0.018748,329.733
260.1000,0.0594828,329.811
260.0000,-0.0019104,329.893
259.9000,0.0246521,329.957
259.8000,0.0798024,330.026
259.7000,0.125216,330.101
259.6000,0.142767,330.163
259.5000,0.153515,330.224
259.4000,0.104337,330.293
259.3000,0.108398,330.359
259.2000,0.179572,330.425
259.1000,0.195244,330.492
259.0000,0.214839,330.549
258.9000,0.10199,330.607
258.8000,0.0762634,330.677
258.7000,0.164597,330.747
258.6000,0.165244,330.813
258.5000,0.159342,330.89
258.4000,0.066747,330.961
258.3000,0.0923208,331.045
258.2000,0.114591,331.147
258.1000,0.132171,331.243
258.0000,0.14682,331.34
257.9000,0.119986,331.44
257.8000,0.210409,331.539
257.7000,0.221808,331.635
257.6000,0.184354,331.735
257.5000,0.0455668,331.822
257.4000,-0.0917002,331.906
257.3000,-0.133296,331.989
257.2000,-0.105583,332.078
257.1000,-0.131175,332.164
257.0000,-0.202841,332.251
256.9000,-0.236157,332.338
256.8000,-0.162876,332.414
256.7000,-0.0510559,332.496
256.6000,-0.0304921,332.579
256.5000,-0.0123423,332.657
256.4000,-0.0737498,332.733
256.3000,-0.0232798,332.807
256.2000,-0.0157277,332.883
256.1000,0.00945231,332.968
256.0000,0.0246328,333.049
255.9000,0.0180542,333.14
255.8000,0.0273844,333.216
255.7000,0.0977254,333.299
255.6000,0.141665,333.387
255.5000,0.21813,333.472
255.4000,0.233381,333.561
255.3000,0.152911,333.627
255.2000,0.00894979,333.694
255.1000,-0.0784465,333.755
255.0000,-0.0715942,333.826
254.9000,-0.0674316,333.885
254.8000,-0.0695333,333.95
254.7000,-0.114334,334.025
254.6000,-0.166422,334.096
254.5000,-0.138179,334.182
254.4000,-0.0944611,334.269
254.3000,-0.0177114,334.367
254.2000,0.00262858,334.457
254.1000,0.00159505,334.554
254.0000,0.0261648,334.64
253.9000,0.0482086,334.728
253.8000,0.0244975,334.805
253.7000,0.0704041,334.876
253.6000,0.0904144,334.934
253.5000,0.0981801,335.001
253.4000,0.118908,335.059
253.3000,0.0991333,335.123
253.2000,0.0270986,335.182
253.1000,-0.069337,335.246
253.0000,-0.166929,335.305
252.9000,-0.198475,335.369
252.8000,-0.113579,335.439
252.7000,-0.0742218,335.51
252.6000,-0.104049,335.584
252.5000,-0.172447,335.664
252.4000,-0.215665,335.745
252.3000,-0.222207,335.836
252.2000,-0.120744,335.924
252.1000,-0.0752594,336.017
252.0000,-0.138774,336.101
251.9000,-0.173598,336.184
251.8000,-0.109443,336.268
251.7000,-0.00793457,336.343
251.6000,0.00741679,336.419
251.5000,0.0461833,336.485
251.4000,0.0148621,336.566
251.3000,-0.0431213,336.644
251.2000,-0.113266,336.716
251.1000,-0.190686,336.8
251.0000,-0.358935,336.888
250.9000,-0.541915,336.99
250.8000,-0.554252,337.098
250.7000,-0.534215,337.211
250.6000,-0.506932,337.308
250.5000,-0.419906,337.395
250.4000,-0.358885,337.503
250.3000,-0.356592,337.606
250.2000,-0.343841,337.701
250.1000,-0.285001,337.777
250.0000,-0.288021,337.846
249.9000,-0.349673,337.918
249.8000,-0.384692,337.989
249.7000,-0.42088,338.066
249.6000,-0.469506,338.136
249.5000,-0.510653,338.207
249.4000,-0.451957,338.295
249.3000,-0.371317,338.383
249.2000,-0.322174,338.475
249.1000,-0.289047,338.572
249.0000,-0.234087,338.665
248.9000,-0.242985,338.759
248.8000,-0.243538,338.86
248.7000,-0.151438,338.953
248.6000,-0.0928731,339.031
248.5000,-0.150215,339.112
248.4000,-0.18024,339.195
248.3000,-0.190337,339.274
248.2000,-0.185902,339.362
248.1000,-0.107391,339.455
248.0000,-0.0955983,339.531
247.9000,-0.183359,339.606
247.8000,-0.22669,339.688
247.7000,-0.266868,339.774
247.6000,-0.298117,339.864
247.5000,-0.230573,339.944
247.4000,-0.169325,340.014
247.3000,-0.247547,340.084
247.2000,-0.396752,340.169
247.1000,-0.437855,340.255
247.0000,-0.536518,340.333
246.9000,-0.567534,340.414
246.8000,-0.530371,340.478
246.7000,-0.495444,340.541
246.6000,-0.549591,340.611
246.5000,-0.488941,340.692
246.4000,-0.340979,340.77
246.3000,-0.18919,340.846
246.2000,-0.0736684,340.925
246.1000,0.000257365,341.015
246.0000,0.0512156,341.111
245.9000,-0.00184224,341.217
245.8000,-0.0502594,341.326
245.7000,-0.121479,341.436
245.6000,-0.224152,341.54
245.5000,-0.312243,341.655
245.4000,-0.425252,341.781
245.3000,-0.472129,341.902
245.2000,-0.538446,342.022
245.1000,-0.61286,342.14
245.0000,-0.649076,342.251
244.9000,-0.58512,342.357
244.8000,-0.523869,342.459
244.7000,-0.530903,342.56
244.6000,-0.526676,342.649
244.5000,-0.485904,342.734
244.4000,-0.424948,342.811
244.3000,-0.375163,342.885
244.2000,-0.259337,342.97
244.1000,-0.23308,343.072
244.0000,-0.250084,343.179
243.9000,-0.324377,343.285
243.8000,-0.247649,343.389
243.7000,-0.158505,343.492
243.6000,-0.151019,343.598
243.5000,-0.171313,343.718
243.4000,-0.136702,343.847
243.3000,-0.165195,343.96
243.2000,-0.140412,344.071
243.1000,-0.142546,344.177
243.0000,-0.117706,344.28
242.9000,-0.211954,344.387
242.8000,-0.312083,344.499
242.7000,-0.300252,344.609
242.6000,-0.280853,344.709
242.5000,-0.271207,344.811
242.4000,-0.297989,344.915
242.3000,-0.262072,345.024
242.2000,-0.20648,345.146
242.1000,-0.0808512,345.279
242.0000,0.0637156,345.41
241.9000,0.131092,345.544
241.8000,0.115702,345.685
241.7000,-0.0115621,345.829
241.6000,-0.0137156,345.969
241.5000,0.0575734,346.109
241.4000,0.0186015,346.25
241.3000,-0.133979,346.385
241.2000,-0.363341,346.518
241.1000,-0.440191,346.654
241.0000,-0.516314,346.791
240.9000,-0.578683,346.92
240.8000,-0.513875,347.049
240.7000,-0.595057,347.184
240.6000,-0.746986,347.321
240.5000,-0.753575,347.459
240.4000,-0.665729,347.601
240.3000,-0.68333,347.743
240.2000,-0.642071,347.888
240.1000,-0.502384,348.036
240.0000,-0.547339,348.19
239.9000,-0.542173,348.344
239.8000,-0.560134,348.496
239.7000,-0.567541,348.645
239.6000,-0.599473,348.795
239.5000,-0.633162,348.955
239.4000,-0.523277,349.12
239.3000,-0.533075,349.288
239.2000,-0.42641,349.456
239.1000,-0.264261,349.627
239.0000,-0.118068,349.805
238.9000,0.00875753,349.989
238.8000,0.064035,350.173
238.7000,0.106656,350.357
238.6000,0.000502523,350.528
238.5000,-0.0359049,350.692
238.4000,-0.124366,350.857
238.3000,-0.280137,351.026
238.2000,-0.525475,351.193
238.1000,-0.559884,351.361
238.0000,-0.620645,351.532
237.9000,-0.595272,351.709
237.8000,-0.524146,351.883
237.7000,-0.573246,352.062
237.6000,-0.68842,352.247
237.5000,-0.757098,352.439
237.4000,-0.737094,352.631
237.3000,-0.776619,352.824
237.2000,-0.897117,353.018
237.1000,-1.00583,353.205
237.0000,-1.0865,353.402
236.9000,-1.15446,353.604
236.8000,-1.14087,353.802
236.7000,-1.11354,353.998
236.6000,-1.10724,354.185
236.5000,-1.1063,354.37
236.4000,-1.00365,354.555
236.3000,-0.922912,354.749
236.2000,-0.92077,354.946
236.1000,-0.903863,355.137
236.0000,-0.865865,355.331
235.9000,-0.910679,355.524
235.8000,-0.843565,355.73
235.7000,-0.856854,355.938
235.6000,-0.830898,356.149
235.5000,-0.846826,356.359
235.4000,-0.860171,356.571
235.3000,-0.848632,356.781
235.2000,-0.838863,356.998
235.1000,-0.73653,357.22
235.0000,-0.750355,357.439
234.9000,-0.715497,357.655
234.8000,-0.685807,357.878
234.7000,-0.728911,358.101
234.6000,-0.667571,358.314
234.5000,-0.585841,358.531
234.4000,-0.544609,358.749
234.3000,-0.534118,358.966
234.2000,-0.49575,359.181
234.1000,-0.532124,359.397
234.0000,-0.49662,359.609
233.9000,-0.523072,359.822
233.8000,-0.518754,360.044
233.7000,-0.659993,360.263
233.6000,-0.790489,360.488
233.5000,-1.09031,360.714
233.4000,-1.25834,360.937
233.3000,-1.33958,361.166
233.2000,-1.47266,361.407
233.1000,-1.56357,361.641
233.0000,-1.66199,361.876
232.9000,-1.6633,362.11
232.8000,-1.6622,362.347
232.7000,-1.52659,362.592
232.6000,-1.36517,362.839
232.5000,-1.27412,363.092
232.4000,-1.34048,363.335
232.3000,-1.3205,363.582
232.2000,-1.23185,363.822
232.1000,-1.38026,364.067
232.0000,-1.43921,364.309
231.9000,-1.53022,364.544
231.8000,-1.58553,364.77
231.7000,-1.65783,365.001
231.6000,-1.62303,365.237
231.5000,-1.68863,365.469
231.4000,-1.85263,365.707
231.3000,-1.77026,365.948
231.2000,-1.75714,366.193
231.1000,-1.78146,366.439
231.0000,-1.79017,366.693
230.9000,-1.88681,366.943
230.8000,-1.98186,367.182
230.7000,-1.97625,367.427
230.6000,-1.9927,367.673
230.5000,-2.09239,367.924
230.4000,-2.14625,368.171
230.3000,-2.09634,368.423
230.2000,-2.01797,368.675
230.1000,-1.97619,368.929
230.0000,-2.00418,369.185
229.9000,-2.06737,369.432
229.8000,-2.00418,369.681
229.7000,-2.0467,369.919
229.6000,-2.00351,370.162
229.5000,-2.02707,370.394
229.4000,-1.93898,370.619
229.3000,-1.99551,370.841
229.2000,-1.98261,371.056
229.1000,-1.87372,371.275
229.0000,-1.91764,371.501
228.9000,-1.85864,371.73
228.8000,-1.69988,371.957
228.7000,-1.74639,372.195
228.6000,-1.89899,372.438
228.5000,-2.08304,372.689
228.4000,-1.99969,372.96
228.3000,-2.08096,373.236
228.2000,-2.26478,373.506
228.1000,-2.36932,373.781
228.0000,-2.51679,374.06
227.9000,-2.67022,374.333
227.8000,-2.71293,374.602
227.7000,-2.6449,374.878
227.6000,-2.77994,375.137
227.5000,-2.97042,375.389
227.4000,-3.0552,375.645
227.3000,-2.9071,375.914
227.2000,-2.81324,376.176
227.1000,-2.75657,376.432
227.0000,-2.8225,376.686
226.9000,-2.90619,376.931
226.8000,-2.89984,377.186
226.7000,-2.76906,377.447
226.6000,-2.59984,377.708
226.5000,-2.47917,377.955
226.4000,-2.46777,378.191
226.3000,-2.48301,378.43
226.2000,-2.43592,378.68
226.1000,-2.21878,378.935
226.0000,-2.12969,379.183
225.9000,-2.10442,379.425
225.8000,-2.0964,379.661
225.7000,-2.09596,379.901
225.6000,-2.10583,380.146
225.5000,-2.18105,380.395
225.4000,-2.27992,380.636
225.3000,-2.44232,380.877
225.2000,-2.59536,381.121
225.1000,-2.65586,381.369
225.0000,-2.74707,381.613
224.9000,-2.73784,381.862
224.8000,-2.78199,382.108
224.7000,-2.78398,382.35
224.6000,-2.7855,382.594
224.5000,-2.78986,382.834
224.4000,-2.69067,383.075
224.3000,-2.66647,383.31
224.2000,-2.64207,383.547
224.1000,-2.70399,383.785
224.0000,-2.79924,384.021
223.9000,-2.73512,384.264
223.8000,-2.70999,384.498
223.7000,-2.75077,384.737
223.6000,-2.94269,384.973
223.5000,-3.12578,385.21
223.4000,-3.19562,385.451
223.3000,-3.21527,385.687
223.2000,-3.22062,385.924
223.1000,-3.37609,386.156
223.0000,-3.52572,386.394
222.9000,-3.54552,386.635
222.8000,-3.44617,386.88
222.7000,-3.40475,387.122
222.6000,-3.31339,387.362
222.5000,-3.23452,387.606
222.4000,-3.3238,387.842
222.3000,-3.30957,388.079
222.2000,-3.19121,388.318
222.1000,-3.17431,388.551
222.0000,-3.18104,388.783
221.9000,-3.07763,389.01
221.8000,-3.01466,389.242
221.7000,-3.04018,389.475
221.6000,-2.86123,389.714
221.5000,-2.74381,389.957
221.4000,-2.76445,390.186
221.3000,-2.69437,390.423
221.2000,-2.62651,390.662
221.1000,-2.65764,390.9
221.0000,-2.77384,391.127
220.9000,-2.84492,391.353
220.8000,-3.04643,391.577
220.7000,-3.15759,391.796
220.6000,-3.21895,392.025
220.5000,-3.08239,392.265
220.4000,-2.88795,392.497
220.3000,-2.78333,392.728
220.2000,-2.5548,392.967
220.1000,-2.44505,393.206
220.0000,-2.29649,393.446
219.9000,-2.29931,393.69
219.8000,-2.31274,393.927
219.7000,-2.39036,394.16
219.6000,-2.50801,394.39
219.5000,-2.57648,394.625
219.4000,-2.69919,394.859
219.3000,-2.83011,395.089
219.2000,-2.82927,395.326
219.1000,-2.87776,395.553
219.0000,-2.85259,395.79
218.9000,-2.79932,396.019
218.8000,-2.78757,396.251
218.7000,-2.85031,396.474
218.6000,-2.93534,396.696
218.5000,-2.93928,396.924
218.4000,-2.83789,397.155
218.3000,-2.77583,397.384
218.2000,-2.66656,397.616
218.1000,-2.56145,397.849
218.0000,-2.68475,398.081
217.9000,-2.72248,398.314
217.8000,-2.73928,398.544
217.7000,-2.7356,398.778
217.6000,-2.82071,399.003
217.5000,-2.78004,399.24
217.4000,-2.68671,399.471
217.3000,-2.78179,399.697
217.2000,-2.82133,399.926
217.1000,-2.65137,400.159
217.0000,-2.64349,400.39
216.9000,-2.48994,400.63
216.8000,-2.3846,400.873
216.7000,-2.32286,401.108
216.6000,-2.33872,401.34
216.5000,-2.24083,401.573
216.4000,-2.16111,401.805
216.3000,-2.23086,402.031
216.2000,-2.27208,402.266
216.1000,-2.32538,402.497
216.0000,-2.40951,402.721
215.9000,-2.60655,402.943
215.8000,-2.78876,403.161
215.7000,-3.01403,403.389
215.6000,-3.18358,403.624
215.5000,-3.23946,403.863
215.4000,-3.16169,404.101
215.3000,-3.14517,404.332
215.2000,-2.96514,404.567
215.1000,-2.94145,404.809
215.0000,-2.94626,405.056
214.9000,-2.8679,405.299
214.8000,-2.81583,405.538
214.7000,-2.72967,405.778
214.6000,-2.95577,406.012
214.5000,-2.97417,406.253
214.4000,-3.03933,406.496
214.3000,-3.00218,406.741
214.2000,-2.91724,406.985
214.1000,-2.8408,407.231
214.0000,-2.78525,407.48
213.9000,-2.82998,407.732
213.8000,-2.7982,407.982
213.7000,-2.71955,408.235
213.6000,-2.75035,408.492
213.5000,-2.88795,408.747
213.4000,-2.78649,409.005
213.3000,-2.81741,409.266
213.2000,-2.73319,409.535
213.1000,-2.63394,409.808
213.0000,-2.24838,410.084
212.9000,-2.08256,410.359
212.8000,-2.12493,410.622
212.7000,-2.13589,410.891
212.6000,-2.31705,411.157
212.5000,-2.22185,411.43
212.4000,-2.10733,411.703
212.3000,-2.3143,411.966
212.2000,-2.54223,412.229
212.1000,-2.72414,412.5
212.0000,-2.76535,412.783
211.9000,-2.45994,413.079
211.8000,-2.32422,413.368
211.7000,-2.49511,413.657
211.6000,-2.52892,413.954
211.5000,-2.45706,414.251
211.4000,-2.22881,414.558
211.3000,-2.06572,414.859
211.2000,-1.84805,415.157
211.1000,-1.90173,415.454
211.0000,-2.05063,415.752
210.9000,-1.92558,416.052
210.8000,-1.97285,416.351
210.7000,-2.01751,416.658
210.6000,-2.03904,416.96
210.5000,-2.32945,417.264
210.4000,-2.36265,417.577
210.3000,-2.4925,417.895
210.2000,-2.61245,418.208
210.1000,-2.73819,418.525
210.0000,-2.8884,418.841
209.9000,-3.09002,419.156
209.8000,-3.25024,419.473
209.7000,-3.28267,419.798
209.6000,-3.43519,420.122
209.5000,-3.58125,420.452
209.4000,-3.52044,420.78
209.3000,-3.42008,421.11
209.2000,-3.41675,421.446
209.1000,-3.32045,421.781
209.0000,-3.2528,422.115
208.9000,-3.16358,422.457
208.8000,-2.99586,422.795
208.7000,-2.88908,423.126
208.6000,-2.72288,423.469
208.5000,-2.67258,423.82
208.4000,-2.5666,424.175
208.3000,-2.43789,424.534
208.2000,-2.5799,424.889
208.1000,-2.7284,425.242
208.0000,-2.80998,425.599
207.9000,-2.71248,425.966
207.8000,-2.87137,426.33
207.7000,-2.89515,426.695
207.6000,-2.83707,427.06
207.5000,-2.78923,427.417
207.4000,-2.79056,427.78
207.3000,-2.59578,428.145
207.2000,-2.57302,428.505
207.1000,-2.72925,428.866
207.0000,-2.73322,429.235
206.9000,-2.68744,429.599
206.8000,-2.69704,429.961
206.7000,-2.84207,430.323
206.6000,-2.85418,430.692
206.5000,-2.80307,431.067
206.4000,-2.81892,431.443
206.3000,-2.90545,431.819
206.2000,-3.00161,432.185
206.1000,-3.25019,432.547
206.0000,-3.4416,432.914
205.9000,-3.37127,433.294
205.8000,-3.34538,433.669
205.7000,-3.58773,434.044
205.6000,-3.58035,434.425
205.5000,-3.47533,434.812
205.4000,-3.26034,435.2
205.3000,-3.16512,435.595
205.2000,-3.02087,435.995
205.1000,-2.73902,436.398
205.0000,-2.64495,436.798
204.9000,-2.53834,437.199
204.8000,-2.41673,437.6
204.7000,-2.31979,438.005
204.6000,-2.24577,438.411
204.5000,-2.08255,438.82
204.4000,-1.96089,439.231
204.3000,-1.97584,439.648
204.2000,-2.00584,440.067
204.1000,-1.94321,440.489
204.0000,-1.7116,440.919
203.9000,-1.54805,441.353
203.8000,-1.46874,441.795
203.7000,-1.44928,442.243
203.6000,-1.5295,442.69
203.5000,-1.49688,443.136
203.4000,-1.42671,443.588
203.3000,-1.39082,444.048
203.2000,-1.24777,444.519
203.1000,-1.40859,444.988
203.0000,-1.65009,445.457
202.9000,-1.7114,445.933
202.8000,-1.72333,446.41
202.7000,-1.5129,446.901
202.6000,-1.26151,447.388
202.5000,-1.3096,447.875
202.4000,-1.24915,448.368
202.3000,-1.12334,448.871
202.2000,-0.647688,449.38
202.1000,-0.188496,449.885
202.0000,-0.0662191,450.395
201.9000,0.105295,450.918
201.8000,0.0839366,451.442
201.7000,0.196099,451.983
201.6000,0.328466,452.536
201.5000,0.319539,453.083
201.4000,0.209394,453.637
201.3000,0.0114115,454.203
201.2000,-0.0343933,454.781
201.1000,0.22093,455.368
201.0000,0.22293,455.961
200.9000,0.308361,456.557
200.8000,0.479328,457.158
200.7000,0.767907,457.77
200.6000,1.10925,458.403
200.5000,1.29958,459.037
200.4000,1.35463,459.69
200.3000,1.30592,460.348
200.2000,1.42003,461.021
200.1000,1.53969,461.704
200.0000,1.50994,462.396
199.9000,1.63798,463.1
199.8000,1.62137,463.8
199.7000,1.75934,464.505
199.6000,2.04823,465.222
199.5000,2.77588,465.955
199.4000,3.04848,466.689
199.3000,2.98425,467.423
199.2000,3.02639,468.177
199.1000,2.95876,468.943
199.0000,2.92163,469.733
198.9000,2.79807,470.549
198.8000,2.49057,471.383
198.7000,2.37092,472.242
198.6000,2.36149,473.123
198.5000,2.8436,474.041
198.4000,3.59105,474.986
198.3000,4.16006,475.952
198.2000,4.27078,476.938
198.1000,4.47951,477.956
198.0000,4.98118,479.006
197.9000,5.27633,480.088
197.8000,5.18943,481.199
197.7000,4.83202,482.339
197.6000,4.14176,483.498
197.5000,3.57097,484.685
197.4000,3.70256,485.9
197.3000,4.14393,487.127
197.2000,4.01015,488.334
197.1000,3.80182,489.524
197.0000,3.60617,490.71
196.9000,3.82997,491.904
196.8000,4.19664,493.11
196.7000,4.79186,494.34
196.6000,4.76211,495.585
196.5000,4.76569,496.873
196.4000,4.9729,498.232
196.3000,5.18179,499.667
196.2000,5.62987,501.179
196.1000,5.85227,502.765
196.0000,6.08074,504.433
195.9000,6.14278,506.19
195.8000,6.5786,508.052
195.7000,7.01392,510.038
195.6000,7.03981,512.131
195.5000,7.16605,514.362
195.4000,7.19696,516.717
195.3000,7.28989,519.173
195.2000,7.16959,521.715
195.1000,7.0431,524.327
195.0000,7.02396,526.947
194.9000,6.44052,529.502
194.8000,5.60486,531.958
194.7000,5.34655,534.303
194.6000,4.80903,536.53
194.5000,4.6692,538.678
194.4000,4.7892,540.768
194.3000,4.90034,542.815
194.2000,4.69861,544.878
194.1000,4.62937,547.05
194.0000,5.0058,549.397
193.9000,5.77022,551.979
193.8000,6.5878,554.816
193.7000,7.0625,557.933
193.6000,7.07794,561.329
193.5000,6.82339,565.078
193.4000,7.24734,569.236
193.3000,7.40874,573.79
193.2000,7.90226,578.735
193.1000,8.17517,584.025
193.0000,8.71441,589.624
192.9000,9.26197,595.442
192.8000,9.7699,601.398
192.7000,10.4903,607.316
192.6000,9.74389,612.916
192.5000,9.63189,618.13
192.4000,10.4664,622.917
192.3000,9.75332,627.236
192.2000,8.94378,631.137
192.1000,8.50327,634.702
192.0000,8.0976,638.001
191.9000,8.09314,641.243
191.8000,8.96673,644.718
191.7000,10.1981,648.661
191.6000,9.29212,653.122
191.5000,9.16302,658.213
191.4000,9.48681,663.947
191.3000,8.74737,670.393
191.2000,8.77687,677.631
191.1000,8.55929,685.632
191.0000,9.57291,694.378
190.9000,10.4195,703.711
190.8000,12.8362,713.526
190.7000,12.4215,723.638
190.6000,13.0727,734.023
190.5000,15.7269,744.434
190.4000,17.8702,754.469
190.3000,18.5074,763.895
190.2000,19.1007,772.634
190.1000,18.7823,780.596
190.0000,16.6841,787.807

##### Extended Information
[Comments]
Sample name,ACE2_D2_0.3uM
Comment
User
Division
Company,CSIR-IMTECH

[Detailed Information]
Creation date,2/26/2024 3:53 PM

Data array type,Linear data array * 2
Horizontal axis,Wavelength [nm]
Vertical axis(1),CD [mdeg]
Vertical axis(2),HT [V]
Start,350 nm
End,190 nm
Data interval,0.1 nm
Data points,1601    

[Measurement Information]
Instrument Name,JASCO CD
Model Name,J-815
Serial No.,B063061168

Accessory,PTC-423S
Accessory S/N,C013945-01
  Temperature,37.94 C
  Control Sonsor,Cell
  Monitor Sensor,Cell
  Start Mode,Start immediately
  Cell Length,10 mm

Measurement date,2/26/2024 3:53 PM

Photometric Mode,CD, HT
Measure Range,350 - 190 nm
Data pitch,0.1 nm
Sensitivity,Standard
D.I.T.,1 sec
Bandwidth,1.00 nm
Start Mode,Immediately
Scanning Speed,50 nm/min
Baseline Correction,Baseline
Shutter Control,Manual
CD Detector,PMT
PMT Voltage,Auto
Accumulations,3
Concentration,0.3 umol/L

