TITLE,ACE2_D2_0.1uM
DATA TYPE,
ORIGIN,JASCO
OWNER,
DATE,24/02/26
TIME,15:17:40
SPECTROMETER/DATA SYSTEM,
LOCALE,1033
RESOLUTION,
DELTAX,-0.1
XUNITS,NANOMETERS
YUNITS,Mol. Ellip.
Y2UNITS,HT [V]
FIRSTX,  350.0000
LASTX,  190.0000
NPOINTS,    1601
FIRSTY,5395375.50000
MAXY,197369936.00000
MINY,-42862064.00000
XYDATA
350.0000,5.39538E+006,471.835
349.9000,2.60227E+006,471.203
349.8000,2.21293E+006,470.318
349.7000,4.74408E+006,469.429
349.6000,3.79179E+006,468.78
349.5000,-844411,468.207
349.4000,-3.14871E+006,467.318
349.3000,-4.2407E+006,466.697
349.2000,-2.25263E+006,466.177
349.1000,-196075,465.377
349.0000,-94869,464.768
348.9000,-4.26049E+006,464.215
348.8000,-8.15518E+006,463.345
348.7000,-9.31421E+006,462.46
348.6000,-9.63937E+006,461.825
348.5000,-8.546E+006,461.282
348.4000,-6.53822E+006,460.418
348.3000,-6.59403E+006,459.757
348.2000,-5.31496E+006,459.165
348.1000,-4.85651E+006,458.288
348.0000,-5.42412E+006,457.638
347.9000,-4.5893E+006,457.075
347.8000,-4.35505E+006,456.247
347.7000,-1.60115E+006,455.418
347.6000,-192576,454.826
347.5000,1.57747E+006,454.332
347.4000,-418772,453.535
347.3000,1.98311E+006,452.941
347.2000,4.66324E+006,452.432
347.1000,8.61458E+006,451.699
347.0000,1.37755E+007,451.155
346.9000,1.30245E+007,450.672
346.8000,1.26935E+007,449.887
346.7000,1.01593E+007,449.078
346.6000,9.33663E+006,448.48
346.5000,8.69652E+006,447.734
346.4000,5.67727E+006,446.973
346.3000,4.19241E+006,446.378
346.2000,813945,445.579
346.1000,-344777,444.775
346.0000,-596578,444.194
345.9000,-2.18235E+006,443.708
345.8000,-1.90374E+006,442.95
345.7000,-3.35875E+006,442.382
345.6000,-3.20142E+006,441.887
345.5000,-3.0782E+006,441.177
345.4000,-1.76336E+006,440.67
345.3000,-1.53719E+006,440.244
345.2000,-2.33044E+006,439.553
345.1000,-526265,438.847
345.0000,1.01716E+006,438.333
344.9000,2.29007E+006,437.653
344.8000,3.39398E+006,436.948
344.7000,4.20967E+006,436.39
344.6000,3.63016E+006,435.694
344.5000,5.68783E+006,434.998
344.4000,8.706E+006,434.486
344.3000,6.70157E+006,433.798
344.2000,4.39246E+006,433.098
344.1000,1.4339E+006,432.571
344.0000,-459737,431.916
343.9000,922526,431.271
343.8000,2.41523E+006,430.792
343.7000,2.2815E+006,430.359
343.6000,156728,429.708
343.5000,-691813,429.252
343.4000,545237,428.88
343.3000,2.88539E+006,428.27
343.2000,3.23041E+006,427.818
343.1000,1.96501E+006,427.418
343.0000,-1.313E+006,426.817
342.9000,-3.62496E+006,426.205
342.8000,-3.15369E+006,425.748
342.7000,-1.55779E+006,425.13
342.6000,-808797,424.496
342.5000,-273102,424.031
342.4000,1.96036E+006,423.452
342.3000,4.27126E+006,422.868
342.2000,7.42358E+006,422.429
342.1000,7.38326E+006,421.862
342.0000,6.82301E+006,421.293
341.9000,5.22599E+006,420.891
341.8000,4.03646E+006,420.356
341.7000,3.19561E+006,419.813
341.6000,1.26791E+006,419.405
341.5000,-786194,418.855
341.4000,-515391,418.296
341.3000,-216848,417.864
341.2000,-919932,417.303
341.1000,-1.36328E+006,416.726
341.0000,-1.80368E+006,416.297
340.9000,-2.3784E+006,415.725
340.8000,-598002,415.151
340.7000,1.01978E+006,414.718
340.6000,-209361,414.194
340.5000,-1.23777E+006,413.671
340.4000,-827016,413.282
340.3000,523387,412.764
340.2000,2.53406E+006,412.244
340.1000,5.97326E+006,411.879
340.0000,4.59154E+006,411.408
339.9000,3.82714E+006,410.928
339.8000,4.10527E+006,410.56
339.7000,3.40129E+006,410.073
339.6000,3.12891E+006,409.571
339.5000,2.16201E+006,409.202
339.4000,315236,408.716
339.3000,-3.60117E+006,408.207
339.2000,-3.22232E+006,407.665
339.1000,-1.90656E+006,407.179
339.0000,-2.95175E+006,406.681
338.9000,-1.70794E+006,406.141
338.8000,-337067,405.659
338.7000,-486064,405.176
338.6000,-291494,404.653
338.5000,2.00522E+006,404.197
338.4000,2.87114E+006,403.86
338.3000,1.65763E+006,403.442
338.2000,1.735E+006,403.027
338.1000,2.59164E+006,402.729
338.0000,2.71525E+006,402.319
337.9000,3.84679E+006,401.906
337.8000,4.56301E+006,401.61
337.7000,4.46311E+006,401.208
337.6000,4.54121E+006,400.793
337.5000,3.47027E+006,400.47
337.4000,3.26923E+006,400.046
337.3000,1.84339E+006,399.607
337.2000,1.55283E+006,399.129
337.1000,1.33861E+006,398.703
337.0000,-261658,398.269
336.9000,-1.2176E+006,397.822
336.8000,-1.55339E+006,397.432
336.7000,-2.78548E+006,397.035
336.6000,-4.534E+006,396.604
336.5000,-5.5864E+006,396.218
336.4000,-6.49242E+006,395.952
336.3000,-8.07062E+006,395.596
336.2000,-8.21731E+006,395.233
336.1000,-7.73505E+006,394.961
336.0000,-8.35983E+006,394.594
335.9000,-7.66496E+006,394.206
335.8000,-5.71926E+006,393.772
335.7000,-4.60444E+006,393.377
335.6000,-3.58861E+006,392.975
335.5000,-2.72112E+006,392.554
335.4000,-2.72136E+006,392.176
335.3000,-1.64673E+006,391.8
335.2000,883616,391.412
335.1000,1.88584E+006,391.074
335.0000,1.69271E+006,390.85
334.9000,3.16388E+006,390.537
334.8000,3.42458E+006,390.207
334.7000,3.06719E+006,389.835
334.6000,2.62889E+006,389.502
334.5000,1.97424E+006,389.161
334.4000,307617,388.768
334.3000,8015.95,388.411
334.2000,-489136,388.045
334.1000,-2.08503E+006,387.649
334.0000,-3.00537E+006,387.305
333.9000,-1.93129E+006,387.062
333.8000,168610,386.741
333.7000,1.18185E+006,386.415
333.6000,60516.4,386.051
333.5000,-475983,385.737
333.4000,-282878,385.42
333.3000,586019,385.079
333.2000,1.39365E+006,384.783
333.1000,1.58824E+006,384.479
333.0000,-133738,384.146
332.9000,-1.07184E+006,383.848
332.8000,-881134,383.517
332.7000,-375865,383.225
332.6000,-507314,382.921
332.5000,-933706,382.585
332.4000,-1.34874E+006,382.29
332.3000,-410706,381.989
332.2000,1.67848E+006,381.657
332.1000,1.70457E+006,381.357
332.0000,2.96851E+006,381.025
331.9000,3.30665E+006,380.737
331.8000,3.27159E+006,380.45
331.7000,3.46725E+006,380.143
331.6000,2.66483E+006,379.863
331.5000,927358,379.456
331.4000,-2.11147E+006,379.126
331.3000,-4.07795E+006,378.834
331.2000,-6.57648E+006,378.532
331.1000,-8.27673E+006,378.267
331.0000,-7.89992E+006,377.995
330.9000,-7.85786E+006,377.697
330.8000,-7.24287E+006,377.431
330.7000,-6.30926E+006,377.147
330.6000,-6.11231E+006,376.903
330.5000,-5.59159E+006,376.654
330.4000,-3.06044E+006,376.366
330.3000,-1.84152E+006,376.107
330.2000,-2.44247E+006,375.755
330.1000,-2.36727E+006,375.479
330.0000,-2.69948E+006,375.231
329.9000,-2.32236E+006,374.931
329.8000,-2.42565E+006,374.659
329.7000,-1.07866E+006,374.308
329.6000,-799154,374.033
329.5000,-1.30143E+006,373.794
329.4000,-1.25338E+006,373.501
329.3000,-2.90829E+006,373.228
329.2000,-2.30418E+006,372.893
329.1000,-2.37534E+006,372.653
329.0000,-3.46941E+006,372.458
328.9000,-5.02665E+006,372.201
328.8000,-5.5138E+006,371.965
328.7000,-5.46724E+006,371.701
328.6000,-4.6159E+006,371.522
328.5000,-3.00641E+006,371.386
328.4000,-3.55818E+006,371.121
328.3000,-3.20494E+006,370.865
328.2000,-1.99134E+006,370.612
328.1000,272125,370.453
328.0000,1.60467E+006,370.332
327.9000,1.80052E+006,370.02
327.8000,2.0455E+006,369.702
327.7000,2.33385E+006,369.403
327.6000,1.82726E+006,369.236
327.5000,960063,369.133
327.4000,609355,368.83
327.3000,531698,368.503
327.2000,-820994,368.217
327.1000,-1.63847E+006,368.092
327.0000,-1.36663E+006,368.042
326.9000,-1.3314E+006,367.771
326.8000,-1.2795E+006,367.464
326.7000,-1.34451E+006,367.185
326.6000,-1.5132E+006,367.059
326.5000,-3.12898E+006,367.003
326.4000,-3.58653E+006,366.697
326.3000,-3.77364E+006,366.349
326.2000,-5.18092E+006,366.045
326.1000,-5.1862E+006,365.894
326.0000,-4.30067E+006,365.592
325.9000,-2.81811E+006,365.263
325.8000,-2.32763E+006,364.91
325.7000,-1.0798E+006,364.616
325.6000,-526367,364.482
325.5000,-554850,364.213
325.4000,590881,363.908
325.3000,529531,363.576
325.2000,-285126,363.465
325.1000,-1.1256E+006,363.441
325.0000,-1.43906E+006,363.213
324.9000,-1.58377E+006,362.935
324.8000,-1.94806E+006,362.66
324.7000,-1.34534E+006,362.554
324.6000,-273743,362.527
324.5000,409200,362.286
324.4000,620402,361.996
324.3000,625204,361.712
324.2000,-377380,361.573
324.1000,-581390,361.299
324.0000,-1.03639E+006,360.996
323.9000,-1.30994E+006,360.668
323.8000,-2.68458E+006,360.368
323.7000,-3.91313E+006,360.217
323.6000,-4.65829E+006,359.965
323.5000,-5.863E+006,359.682
323.4000,-5.21048E+006,359.42
323.3000,-5.54052E+006,359.312
323.2000,-5.11227E+006,359.28
323.1000,-4.07493E+006,359.094
323.0000,-2.57316E+006,358.88
322.9000,-2.1618E+006,358.627
322.8000,-2.83777E+006,358.494
322.7000,-2.42315E+006,358.249
322.6000,-2.04461E+006,357.965
322.5000,-1.17743E+006,357.661
322.4000,-544729,357.354
322.3000,-1.06567E+006,357.148
322.2000,-1.55785E+006,356.794
322.1000,-2.35865E+006,356.439
322.0000,-1.83299E+006,356.121
321.9000,-797740,355.935
321.8000,-1.00932E+006,355.691
321.7000,-1.06507E+006,355.447
321.6000,-1.09085E+006,355.203
321.5000,-897695,354.963
321.4000,-670542,354.881
321.3000,-111033,354.765
321.2000,-522705,354.633
321.1000,-1.62733E+006,354.465
321.0000,-2.38875E+006,354.399
320.9000,-2.21035E+006,354.259
320.8000,-2.19535E+006,354.112
320.7000,-2.58905E+006,353.951
320.6000,-3.34328E+006,353.781
320.5000,-3.80245E+006,353.692
320.4000,-4.21914E+006,353.483
320.3000,-3.67953E+006,353.284
320.2000,-2.72803E+006,353.086
320.1000,-1.49937E+006,352.976
320.0000,-893097,352.807
319.9000,-965932,352.644
319.8000,-369517,352.46
319.7000,501017,352.271
319.6000,389018,352.085
319.5000,772492,351.955
319.4000,-167582,351.814
319.3000,-1.03878E+006,351.627
319.2000,-2.8701E+006,351.502
319.1000,-3.45087E+006,351.304
319.0000,-4.51464E+006,351.113
318.9000,-5.88461E+006,350.886
318.8000,-5.9232E+006,350.736
318.7000,-5.13339E+006,350.5
318.6000,-4.2099E+006,350.258
318.5000,-3.61736E+006,350.03
318.4000,-4.08174E+006,349.812
318.3000,-3.94775E+006,349.619
318.2000,-3.78694E+006,349.469
318.1000,-4.34786E+006,349.345
318.0000,-4.39761E+006,349.185
317.9000,-4.89547E+006,349.109
317.8000,-4.92958E+006,349.012
317.7000,-5.04298E+006,348.922
317.6000,-4.52192E+006,348.762
317.5000,-2.711E+006,348.644
317.4000,-1.92356E+006,348.468
317.3000,-782928,348.284
317.2000,302592,348.076
317.1000,1.38304E+006,347.878
317.0000,2.43909E+006,347.634
316.9000,2.93667E+006,347.405
316.8000,2.68322E+006,347.194
316.7000,1.72772E+006,346.999
316.6000,599742,346.826
316.5000,83374,346.675
316.4000,-68969.7,346.502
316.3000,-1.28774E+006,346.335
316.2000,-2.47373E+006,346.194
316.1000,-3.10103E+006,346.095
316.0000,-3.57857E+006,346.018
315.9000,-3.46815E+006,345.872
315.8000,-3.23698E+006,345.746
315.7000,-3.4962E+006,345.583
315.6000,-3.18122E+006,345.471
315.5000,-3.19406E+006,345.296
315.4000,-2.32509E+006,345.153
315.3000,-1.76312E+006,344.946
315.2000,-1.11027E+006,344.731
315.1000,-1.61459E+006,344.527
315.0000,-592041,344.347
314.9000,715708,344.188
314.8000,193359,344.034
314.7000,-270325,343.871
314.6000,-1.37429E+006,343.73
314.5000,-2.60725E+006,343.607
314.4000,-2.77361E+006,343.507
314.3000,-2.30092E+006,343.364
314.2000,-3.27677E+006,343.234
314.1000,-4.70686E+006,343.072
314.0000,-4.87304E+006,342.918
313.9000,-4.43856E+006,342.737
313.8000,-3.91449E+006,342.58
313.7000,-2.60584E+006,342.368
313.6000,-2.53279E+006,342.16
313.5000,-3.14835E+006,341.966
313.4000,-2.79816E+006,341.798
313.3000,-2.97219E+006,341.642
313.2000,-3.22782E+006,341.491
313.1000,-3.94246E+006,341.319
313.0000,-4.5162E+006,341.17
312.9000,-4.30634E+006,341.048
312.8000,-4.14457E+006,340.953
312.7000,-2.35926E+006,340.812
312.6000,-1.3327E+006,340.681
312.5000,-1.12917E+006,340.531
312.4000,-107249,340.385
312.3000,1.33364E+006,340.21
312.2000,1.49781E+006,340.051
312.1000,1.15213E+006,339.845
312.0000,425934,339.641
311.9000,-534332,339.442
311.8000,-2.08275E+006,339.251
311.7000,-3.35042E+006,339.082
311.6000,-4.58094E+006,338.859
311.5000,-5.64958E+006,338.694
311.4000,-5.33604E+006,338.542
311.3000,-4.57892E+006,338.439
311.2000,-3.87368E+006,338.301
311.1000,-3.80544E+006,338.201
311.0000,-3.42183E+006,338.102
310.9000,-2.50408E+006,338.01
310.8000,-2.22564E+006,337.904
310.7000,-2.19595E+006,337.823
310.6000,-1.84138E+006,337.702
310.5000,-1.27574E+006,337.583
310.4000,-1.56132E+006,337.474
310.3000,-1.60349E+006,337.383
310.2000,-2.12541E+006,337.297
310.1000,-2.11942E+006,337.219
310.0000,-1.92617E+006,337.13
309.9000,-529745,337.06
309.8000,-168203,337.003
309.7000,-771729,336.902
309.6000,-1.57686E+006,336.823
309.5000,-2.48605E+006,336.728
309.4000,-1.98239E+006,336.648
309.3000,-836670,336.498
309.2000,434825,336.383
309.1000,374603,336.234
309.0000,351013,336.101
308.9000,529958,335.972
308.8000,760824,335.864
308.7000,2.12216E+006,335.764
308.6000,2.20843E+006,335.665
308.5000,1.25645E+006,335.552
308.4000,262258,335.45
308.3000,781759,335.383
308.2000,1.21581E+006,335.265
308.1000,711161,335.176
308.0000,840464,335.081
307.9000,695028,334.993
307.8000,101990,334.841
307.7000,-105214,334.734
307.6000,-686534,334.62
307.5000,-1.4998E+006,334.453
307.4000,-2.32419E+006,334.335
307.3000,-2.38869E+006,334.228
307.2000,-1.96148E+006,334.139
307.1000,-2.03968E+006,334.002
307.0000,-2.69952E+006,333.909
306.9000,-2.07641E+006,333.83
306.8000,-1.88515E+006,333.777
306.7000,-1.84417E+006,333.707
306.6000,-2.22983E+006,333.629
306.5000,-1.24624E+006,333.565
306.4000,-1.01167E+006,333.434
306.3000,-787954,333.34
306.2000,-12003.6,333.227
306.1000,411540,333.122
306.0000,639343,332.97
305.9000,846812,332.865
305.8000,1.61942E+006,332.788
305.7000,2.43074E+006,332.657
305.6000,2.82558E+006,332.574
305.5000,1.95603E+006,332.505
305.4000,435883,332.458
305.3000,418498,332.356
305.2000,275085,332.286
305.1000,17293.3,332.217
305.0000,66436.8,332.088
304.9000,-820597,332
304.8000,-2.04586E+006,331.904
304.7000,-926331,331.816
304.6000,296570,331.685
304.5000,384755,331.595
304.4000,-333313,331.528
304.3000,38045.2,331.403
304.2000,-66701.3,331.33
304.1000,-130005,331.285
304.0000,85306.8,331.257
303.9000,-801208,331.161
303.8000,-1.90191E+006,331.088
303.7000,-2.29593E+006,331.039
303.6000,-2.32181E+006,330.924
303.5000,-2.61861E+006,330.854
303.4000,-2.73615E+006,330.785
303.3000,-2.39234E+006,330.673
303.2000,-3.01731E+006,330.555
303.1000,-3.12424E+006,330.482
303.0000,-2.98381E+006,330.442
302.9000,-2.4214E+006,330.336
302.8000,-2.22903E+006,330.27
302.7000,-2.23727E+006,330.228
302.6000,-2.33879E+006,330.133
302.5000,-3.17827E+006,330.074
302.4000,-3.33357E+006,330.024
302.3000,-3.17353E+006,329.923
302.2000,-2.86937E+006,329.821
302.1000,-3.07039E+006,329.738
302.0000,-3.35622E+006,329.679
301.9000,-2.64597E+006,329.586
301.8000,-2.35934E+006,329.524
301.7000,-2.23971E+006,329.482
301.6000,-1.92994E+006,329.389
301.5000,-1.45573E+006,329.336
301.4000,-1.73257E+006,329.294
301.3000,-2.23376E+006,329.209
301.2000,-2.93127E+006,329.133
301.1000,-2.9639E+006,329.073
301.0000,-3.2439E+006,329.038
300.9000,-2.91796E+006,328.953
300.8000,-2.03869E+006,328.874
300.7000,-1.85239E+006,328.813
300.6000,-1.5088E+006,328.73
300.5000,-548543,328.675
300.4000,347005,328.641
300.3000,733297,328.558
300.2000,1.2258E+006,328.476
300.1000,1.16819E+006,328.42
300.0000,757924,328.351
299.9000,-205617,328.292
299.8000,-794841,328.245
299.7000,-1.24258E+006,328.171
299.6000,-1.6525E+006,328.097
299.5000,-1.51576E+006,328.037
299.4000,-1.60886E+006,327.992
299.3000,-1.64496E+006,327.923
299.2000,-1.98591E+006,327.877
299.1000,-2.19908E+006,327.845
299.0000,-2.05688E+006,327.774
298.9000,-2.6626E+006,327.725
298.8000,-2.68578E+006,327.694
298.7000,-3.59486E+006,327.63
298.6000,-4.41842E+006,327.575
298.5000,-5.42076E+006,327.528
298.4000,-5.68389E+006,327.462
298.3000,-5.10638E+006,327.4
298.2000,-4.88292E+006,327.35
298.1000,-4.4018E+006,327.292
298.0000,-4.20296E+006,327.235
297.9000,-3.7151E+006,327.197
297.8000,-3.73218E+006,327.131
297.7000,-4.00184E+006,327.069
297.6000,-3.59903E+006,327.032
297.5000,-3.70661E+006,326.966
297.4000,-4.61198E+006,326.911
297.3000,-5.39039E+006,326.874
297.2000,-6.12682E+006,326.806
297.1000,-6.20697E+006,326.751
297.0000,-5.68679E+006,326.714
296.9000,-5.13152E+006,326.66
296.8000,-4.34833E+006,326.611
296.7000,-3.73658E+006,326.579
296.6000,-3.86639E+006,326.561
296.5000,-3.48434E+006,326.512
296.4000,-2.6023E+006,326.485
296.3000,-2.20407E+006,326.471
296.2000,-2.5375E+006,326.425
296.1000,-2.52127E+006,326.395
296.0000,-2.72998E+006,326.376
295.9000,-3.64261E+006,326.328
295.8000,-4.18735E+006,326.265
295.7000,-3.97371E+006,326.233
295.6000,-4.37119E+006,326.196
295.5000,-5.21227E+006,326.137
295.4000,-5.32357E+006,326.073
295.3000,-5.0255E+006,326.034
295.2000,-4.8705E+006,325.982
295.1000,-4.529E+006,325.923
295.0000,-4.1774E+006,325.893
294.9000,-3.46843E+006,325.85
294.8000,-3.34473E+006,325.79
294.7000,-3.45033E+006,325.754
294.6000,-3.40867E+006,325.725
294.5000,-3.20318E+006,325.685
294.4000,-2.94839E+006,325.655
294.3000,-2.61E+006,325.632
294.2000,-2.31509E+006,325.588
294.1000,-2.49019E+006,325.551
294.0000,-2.48698E+006,325.526
293.9000,-1.6636E+006,325.483
293.8000,-1.08893E+006,325.455
293.7000,-1.46162E+006,325.433
293.6000,-2.13135E+006,325.383
293.5000,-3.4429E+006,325.32
293.4000,-4.3788E+006,325.291
293.3000,-4.56584E+006,325.252
293.2000,-4.74481E+006,325.203
293.1000,-5.05727E+006,325.181
293.0000,-5.28746E+006,325.137
292.9000,-5.622E+006,325.088
292.8000,-6.34047E+006,325.067
292.7000,-6.02452E+006,325.048
292.6000,-5.93714E+006,325.015
292.5000,-5.19898E+006,324.968
292.4000,-5.48785E+006,324.943
292.3000,-5.21382E+006,324.903
292.2000,-5.59577E+006,324.859
292.1000,-6.31865E+006,324.838
292.0000,-6.85734E+006,324.802
291.9000,-7.41028E+006,324.753
291.8000,-7.63971E+006,324.709
291.7000,-7.65049E+006,324.692
291.6000,-7.56463E+006,324.654
291.5000,-7.56529E+006,324.614
291.4000,-7.7164E+006,324.594
291.3000,-6.07168E+006,324.554
291.2000,-4.53782E+006,324.497
291.1000,-3.21004E+006,324.437
291.0000,-2.09676E+006,324.396
290.9000,-1.92105E+006,324.327
290.8000,-1.39226E+006,324.241
290.7000,-1.48764E+006,324.147
290.6000,-1.44831E+006,324.041
290.5000,-1.63566E+006,323.916
290.4000,-1.63899E+006,323.79
290.3000,-1.66819E+006,323.682
290.2000,-1.96982E+006,323.552
290.1000,-2.71557E+006,323.417
290.0000,-2.86215E+006,323.299
289.9000,-2.34247E+006,323.223
289.8000,-1.36794E+006,323.16
289.7000,-663645,323.118
289.6000,-682617,323.111
289.5000,-1.16436E+006,323.139
289.4000,-679545,323.19
289.3000,-52846.3,323.269
289.2000,155060,323.364
289.1000,-266510,323.472
289.0000,-770386,323.571
288.9000,-1.50428E+006,323.668
288.8000,-1.97221E+006,323.753
288.7000,-1.17767E+006,323.829
288.6000,-1.06774E+006,323.879
288.5000,-1.16113E+006,323.915
288.4000,-590108,323.935
288.3000,-63273.1,323.948
288.2000,197937,323.947
288.1000,385691,323.935
288.0000,771088,323.917
287.9000,1.36096E+006,323.882
287.8000,2.15227E+006,323.863
287.7000,3.17265E+006,323.842
287.6000,2.68772E+006,323.822
287.5000,2.38216E+006,323.789
287.4000,2.44855E+006,323.772
287.3000,2.83371E+006,323.752
287.2000,2.00373E+006,323.734
287.1000,1.46198E+006,323.718
287.0000,173574,323.683
286.9000,-770142,323.661
286.8000,-385579,323.649
286.7000,-703003,323.635
286.6000,-1.42965E+006,323.604
286.5000,-1.99174E+006,323.588
286.4000,-2.09149E+006,323.582
286.3000,-2.11464E+006,323.574
286.2000,-2.17915E+006,323.573
286.1000,-1.8572E+006,323.561
286.0000,-1.83567E+006,323.56
285.9000,-2.01849E+006,323.556
285.8000,-1.6499E+006,323.553
285.7000,-1.50334E+006,323.541
285.6000,-1.31521E+006,323.518
285.5000,-774506,323.518
285.4000,-329020,323.522
285.3000,-338654,323.523
285.2000,-924876,323.509
285.1000,-1.24273E+006,323.492
285.0000,-901225,323.498
284.9000,-785838,323.499
284.8000,-621012,323.503
284.7000,-1.07359E+006,323.492
284.6000,-1.83189E+006,323.474
284.5000,-2.72849E+006,323.476
284.4000,-2.51962E+006,323.484
284.3000,-2.24673E+006,323.489
284.2000,-1.88679E+006,323.479
284.1000,-1.56167E+006,323.462
284.0000,-1.10781E+006,323.447
283.9000,-189850,323.452
283.8000,224976,323.459
283.7000,1.05375E+006,323.458
283.6000,1.26188E+006,323.445
283.5000,1.29764E+006,323.44
283.4000,816121,323.431
283.3000,283518,323.445
283.2000,-739644,323.467
283.1000,-1.40045E+006,323.469
283.0000,-1.32619E+006,323.466
282.9000,-1.07361E+006,323.46
282.8000,-935933,323.462
282.7000,-1.18467E+006,323.479
282.6000,-1.13712E+006,323.499
282.5000,-1.04736E+006,323.511
282.4000,-688405,323.506
282.3000,-395874,323.506
282.2000,-709208,323.505
282.1000,-1.37858E+006,323.521
282.0000,-2.00564E+006,323.534
281.9000,-2.54153E+006,323.531
281.8000,-2.90887E+006,323.53
281.7000,-3.36994E+006,323.524
281.6000,-3.53318E+006,323.526
281.5000,-3.28955E+006,323.527
281.4000,-3.02189E+006,323.547
281.3000,-3.53719E+006,323.556
281.2000,-2.93396E+006,323.558
281.1000,-2.70883E+006,323.557
281.0000,-2.70069E+006,323.556
280.9000,-2.35458E+006,323.554
280.8000,-1.50778E+006,323.55
280.7000,-1.07128E+006,323.55
280.6000,-1.57218E+006,323.555
280.5000,-1.14052E+006,323.55
280.4000,-547302,323.548
280.3000,-628377,323.542
280.2000,189748,323.532
280.1000,729594,323.523
280.0000,906535,323.513
279.9000,326803,323.499
279.8000,136047,323.473
279.7000,1.08126E+006,323.461
279.6000,1.3996E+006,323.448
279.5000,1.51809E+006,323.442
279.4000,767588,323.437
279.3000,-274933,323.429
279.2000,-616557,323.424
279.1000,-469167,323.423
279.0000,-253733,323.425
278.9000,-588908,323.417
278.8000,-2.06295E+006,323.423
278.7000,-2.37209E+006,323.429
278.6000,-1.94996E+006,323.437
278.5000,-846252,323.452
278.4000,-59377,323.468
278.3000,-580872,323.483
278.2000,-1.10125E+006,323.497
278.1000,-732747,323.508
278.0000,136495,323.506
277.9000,155457,323.498
277.8000,98398.8,323.491
277.7000,96516.9,323.485
277.6000,5116.78,323.494
277.5000,-418060,323.502
277.4000,-586477,323.509
277.3000,-660960,323.521
277.2000,-1.19207E+006,323.534
277.1000,-1.49367E+006,323.55
277.0000,-1.85185E+006,323.564
276.9000,-2.31677E+006,323.574
276.8000,-2.75259E+006,323.571
276.7000,-2.57313E+006,323.563
276.6000,-1.76024E+006,323.562
276.5000,-1.46884E+006,323.563
276.4000,-1.84953E+006,323.562
276.3000,-652975,323.561
276.2000,-8728.03,323.558
276.1000,537811,323.561
276.0000,635254,323.58
275.9000,510956,323.601
275.8000,784180,323.621
275.7000,1.16207E+006,323.641
275.6000,2.21622E+006,323.665
275.5000,2.23904E+006,323.689
275.4000,2.05181E+006,323.718
275.3000,2.46417E+006,323.75
275.2000,2.05584E+006,323.766
275.1000,2.16994E+006,323.775
275.0000,2.01462E+006,323.786
274.9000,1.84536E+006,323.796
274.8000,909912,323.801
274.7000,159698,323.803
274.6000,-268941,323.805
274.5000,-624481,323.805
274.4000,-559611,323.809
274.3000,-627380,323.812
274.2000,-805806,323.814
274.1000,-1.62237E+006,323.817
274.0000,-2.43671E+006,323.82
273.9000,-3.6211E+006,323.827
273.8000,-4.03766E+006,323.837
273.7000,-3.86919E+006,323.844
273.6000,-4.23238E+006,323.848
273.5000,-4.39321E+006,323.857
273.4000,-4.69507E+006,323.867
273.3000,-4.65088E+006,323.881
273.2000,-3.88797E+006,323.897
273.1000,-2.96833E+006,323.914
273.0000,-2.72658E+006,323.927
272.9000,-3.36885E+006,323.944
272.8000,-2.85242E+006,323.962
272.7000,-2.32805E+006,323.982
272.6000,-1.39373E+006,324.004
272.5000,-305135,324.026
272.4000,851593,324.045
272.3000,1.33549E+006,324.063
272.2000,2.20973E+006,324.085
272.1000,3.12011E+006,324.106
272.0000,3.36388E+006,324.124
271.9000,3.78126E+006,324.144
271.8000,3.59402E+006,324.16
271.7000,3.055E+006,324.172
271.6000,1.66375E+006,324.182
271.5000,1.10679E+006,324.196
271.4000,862061,324.205
271.3000,987722,324.214
271.2000,803457,324.222
271.1000,100861,324.226
271.0000,61157.2,324.229
270.9000,-25166.8,324.221
270.8000,197693,324.218
270.7000,-128672,324.212
270.6000,-357168,324.206
270.5000,-973684,324.197
270.4000,-1.73943E+006,324.187
270.3000,-1.51824E+006,324.183
270.2000,-1.95587E+006,324.187
270.1000,-2.12242E+006,324.205
270.0000,-1.59137E+006,324.227
269.9000,-1.19983E+006,324.243
269.8000,-897634,324.26
269.7000,-322479,324.282
269.6000,114685,324.305
269.5000,232727,324.323
269.4000,543111,324.324
269.3000,667613,324.324
269.2000,-168894,324.327
269.1000,-455170,324.333
269.0000,70343,324.34
268.9000,-530762,324.355
268.8000,-648936,324.375
268.7000,-268870,324.405
268.6000,-246704,324.448
268.5000,-169312,324.492
268.4000,458232,324.531
268.3000,1.0891E+006,324.559
268.2000,1.21716E+006,324.592
268.1000,1.52229E+006,324.617
268.0000,2.44024E+006,324.649
267.9000,2.38683E+006,324.681
267.8000,2.14274E+006,324.714
267.7000,1.73097E+006,324.746
267.6000,521810,324.783
267.5000,-181285,324.832
267.4000,-726451,324.866
267.3000,-972595,324.904
267.2000,-1.84505E+006,324.937
267.1000,-2.51222E+006,324.966
267.0000,-2.0226E+006,325.001
266.9000,-1.63546E+006,325.038
266.8000,-1.30154E+006,325.074
266.7000,-1.20842E+006,325.092
266.6000,-1.06547E+006,325.131
266.5000,-1.07185E+006,325.179
266.4000,-1.78344E+006,325.223
266.3000,-1.32999E+006,325.276
266.2000,-1.73799E+006,325.326
266.1000,-2.0324E+006,325.377
266.0000,-1.54933E+006,325.413
265.9000,-1.69536E+006,325.467
265.8000,-1.10476E+006,325.528
265.7000,-940837,325.588
265.6000,155416,325.662
265.5000,180725,325.727
265.4000,462077,325.775
265.3000,1.38267E+006,325.817
265.2000,1.5761E+006,325.879
265.1000,1.4064E+006,325.952
265.0000,1.37612E+006,326.014
264.9000,1.70013E+006,326.082
264.8000,888163,326.123
264.7000,163198,326.166
264.6000,-733480,326.219
264.5000,-2.17507E+006,326.279
264.4000,-3.3409E+006,326.346
264.3000,-2.94522E+006,326.4
264.2000,-2.7345E+006,326.454
264.1000,-3.32923E+006,326.515
264.0000,-3.36815E+006,326.586
263.9000,-3.22996E+006,326.664
263.8000,-3.10713E+006,326.738
263.7000,-2.41548E+006,326.819
263.6000,-1.65852E+006,326.899
263.5000,-2.53987E+006,326.97
263.4000,-3.86972E+006,327.047
263.3000,-3.88177E+006,327.108
263.2000,-4.18449E+006,327.169
263.1000,-3.793E+006,327.238
263.0000,-1.90182E+006,327.306
262.9000,-1.19205E+006,327.354
262.8000,-921438,327.398
262.7000,-786011,327.447
262.6000,-205190,327.507
262.5000,-146128,327.576
262.4000,215383,327.636
262.3000,831563,327.694
262.2000,840403,327.754
262.1000,520498,327.838
262.0000,626923,327.912
261.9000,621745,327.988
261.8000,596690,328.064
261.7000,705129,328.12
261.6000,458893,328.181
261.5000,-10904.9,328.252
261.4000,-916138,328.323
261.3000,-1.40754E+006,328.383
261.2000,-2.08151E+006,328.456
261.1000,-2.40814E+006,328.539
261.0000,-1.76264E+006,328.626
260.9000,-1.65172E+006,328.708
260.8000,-1.8201E+006,328.801
260.7000,-1.63046E+006,328.893
260.6000,-1.96523E+006,328.973
260.5000,-1.73326E+006,329.054
260.4000,-1.65905E+006,329.144
260.3000,-1.76069E+006,329.23
260.2000,-1.93255E+006,329.299
260.1000,-1.6466E+006,329.38
260.0000,-1.80988E+006,329.464
259.9000,-1.7737E+006,329.529
259.8000,-1.46114E+006,329.608
259.7000,-867055,329.696
259.6000,-257060,329.768
259.5000,583110,329.839
259.4000,565033,329.916
259.3000,513540,329.981
259.2000,869537,330.044
259.1000,1.23538E+006,330.116
259.0000,1.8048E+006,330.181
258.9000,777273,330.24
258.8000,-46101.9,330.309
258.7000,-135579,330.372
258.6000,-606771,330.437
258.5000,-117310,330.517
258.4000,-395864,330.591
258.3000,-708832,330.669
258.2000,-784821,330.753
258.1000,-669220,330.828
258.0000,-1.06313E+006,330.911
257.9000,-2.01576E+006,331
257.8000,-2.09955E+006,331.084
257.7000,-2.09872E+006,331.171
257.6000,-2.08337E+006,331.267
257.5000,-2.81094E+006,331.353
257.4000,-3.68619E+006,331.443
257.3000,-4.72402E+006,331.531
257.2000,-4.66998E+006,331.621
257.1000,-4.10752E+006,331.715
257.0000,-3.90665E+006,331.802
256.9000,-4.19302E+006,331.884
256.8000,-3.46225E+006,331.955
256.7000,-2.27513E+006,332.037
256.6000,-1.48065E+006,332.119
256.5000,-940084,332.191
256.4000,-800201,332.259
256.3000,-710500,332.313
256.2000,-406982,332.378
256.1000,644348,332.454
256.0000,346191,332.521
255.9000,-277496,332.593
255.8000,-1.09925E+006,332.652
255.7000,-436564,332.73
255.6000,849721,332.825
255.5000,2.31849E+006,332.922
255.4000,2.55038E+006,333.022
255.3000,1.49929E+006,333.102
255.2000,504110,333.19
255.1000,319132,333.271
255.0000,1.14582E+006,333.363
254.9000,1.63571E+006,333.443
254.8000,575907,333.519
254.7000,-388733,333.602
254.6000,-847616,333.674
254.5000,-402273,333.75
254.4000,-712606,333.822
254.3000,-282583,333.909
254.2000,-614614,333.987
254.1000,-1.37472E+006,334.068
254.0000,-1.52042E+006,334.143
253.9000,-1.59791E+006,334.22
253.8000,-2.72663E+006,334.284
253.7000,-3.39687E+006,334.354
253.6000,-2.41794E+006,334.427
253.5000,-1.81065E+006,334.503
253.4000,-1.86754E+006,334.571
253.3000,-1.92878E+006,334.65
253.2000,-1.24132E+006,334.727
253.1000,-1.23671E+006,334.799
253.0000,-1.08562E+006,334.878
252.9000,-435750,334.967
252.8000,-159312,335.049
252.7000,512360,335.136
252.6000,933533,335.229
252.5000,957845,335.327
252.4000,940145,335.411
252.3000,1.1535E+006,335.494
252.2000,1.43025E+006,335.56
252.1000,1.57322E+006,335.619
252.0000,1.23819E+006,335.677
251.9000,739878,335.735
251.8000,594208,335.798
251.7000,1.37244E+006,335.852
251.6000,1.11329E+006,335.917
251.5000,660309,335.98
251.4000,585765,336.064
251.3000,1.25686E+006,336.15
251.2000,1.82993E+006,336.236
251.1000,853038,336.328
251.0000,-1.17535E+006,336.409
250.9000,-2.55607E+006,336.503
250.8000,-2.41327E+006,336.596
250.7000,-773722,336.703
250.6000,-373728,336.796
250.5000,350728,336.886
250.4000,-591502,336.987
250.3000,-970022,337.08
250.2000,-94350.2,337.178
250.1000,619659,337.257
250.0000,421285,337.328
249.9000,-1.00369E+006,337.394
249.8000,-1.57255E+006,337.465
249.7000,-2.07809E+006,337.553
249.6000,-1.59284E+006,337.641
249.5000,-1.4116E+006,337.726
249.4000,-471781,337.817
249.3000,-634043,337.904
249.2000,-773397,337.989
249.1000,-837067,338.078
249.0000,-286957,338.163
248.9000,-408569,338.235
248.8000,-818298,338.307
248.7000,-455729,338.377
248.6000,-751709,338.442
248.5000,-652039,338.519
248.4000,-303324,338.607
248.3000,-81471.8,338.69
248.2000,-896006,338.768
248.1000,-1.5178E+006,338.85
248.0000,-2.33485E+006,338.929
247.9000,-3.76008E+006,339.018
247.8000,-4.1401E+006,339.106
247.7000,-4.97619E+006,339.184
247.6000,-5.69082E+006,339.257
247.5000,-5.06379E+006,339.33
247.4000,-3.70531E+006,339.408
247.3000,-3.9793E+006,339.486
247.2000,-4.56289E+006,339.567
247.1000,-4.15814E+006,339.637
247.0000,-4.55259E+006,339.701
246.9000,-3.97767E+006,339.779
246.8000,-2.87792E+006,339.854
246.7000,-1.71972E+006,339.927
246.6000,-2.11031E+006,339.996
246.5000,-2.35553E+006,340.077
246.4000,-1.21805E+006,340.158
246.3000,-197886,340.239
246.2000,1.17989E+006,340.325
246.1000,1.6174E+006,340.413
246.0000,1.14382E+006,340.497
245.9000,-218099,340.584
245.8000,-1.32314E+006,340.681
245.7000,-1.60815E+006,340.787
245.6000,-1.69396E+006,340.889
245.5000,-1.94164E+006,340.992
245.4000,-2.3346E+006,341.096
245.3000,-2.29395E+006,341.196
245.2000,-1.55131E+006,341.306
245.1000,-2.01197E+006,341.413
245.0000,-2.44433E+006,341.514
244.9000,-2.51468E+006,341.603
244.8000,-3.3743E+006,341.686
244.7000,-3.56985E+006,341.782
244.6000,-3.63877E+006,341.881
244.5000,-3.6072E+006,341.98
244.4000,-4.31733E+006,342.067
244.3000,-4.13463E+006,342.154
244.2000,-2.87184E+006,342.248
244.1000,-2.74562E+006,342.355
244.0000,-2.14195E+006,342.46
243.9000,-1.70215E+006,342.558
243.8000,-2.0517E+006,342.645
243.7000,-1.627E+006,342.734
243.6000,-2.47784E+006,342.83
243.5000,-2.91458E+006,342.938
243.4000,-2.91787E+006,343.059
243.3000,-2.75024E+006,343.171
243.2000,-2.16548E+006,343.284
243.1000,-2.52092E+006,343.396
243.0000,-1.99159E+006,343.513
242.9000,-2.43474E+006,343.63
242.8000,-2.52132E+006,343.737
242.7000,-1.76135E+006,343.841
242.6000,-1.16874E+006,343.937
242.5000,-1.22162E+006,344.03
242.4000,-1.48188E+006,344.131
242.3000,-1.51607E+006,344.234
242.2000,-2.34122E+006,344.336
242.1000,-2.50697E+006,344.45
242.0000,-2.00572E+006,344.572
241.9000,-2.14792E+006,344.687
241.8000,-3.03373E+006,344.796
241.7000,-3.33211E+006,344.912
241.6000,-3.4689E+006,345.022
241.5000,-2.63003E+006,345.131
241.4000,-1.8824E+006,345.252
241.3000,-1.60264E+006,345.374
241.2000,-2.59663E+006,345.491
241.1000,-3.3185E+006,345.611
241.0000,-4.70462E+006,345.737
240.9000,-5.1904E+006,345.866
240.8000,-5.15276E+006,345.994
240.7000,-6.34806E+006,346.125
240.6000,-8.60091E+006,346.25
240.5000,-8.99352E+006,346.375
240.4000,-8.62687E+006,346.498
240.3000,-8.25323E+006,346.623
240.2000,-6.82873E+006,346.75
240.1000,-5.41816E+006,346.879
240.0000,-4.6024E+006,347.012
239.9000,-2.99417E+006,347.153
239.8000,-1.76901E+006,347.293
239.7000,-1.16003E+006,347.425
239.6000,-1.74092E+006,347.551
239.5000,-2.10725E+006,347.69
239.4000,-1.21674E+006,347.838
239.3000,-1.01264E+006,347.992
239.2000,-471568,348.145
239.1000,-5259.2,348.294
239.0000,1.11602E+006,348.441
238.9000,2.28591E+006,348.592
238.8000,3.03179E+006,348.75
238.7000,2.36678E+006,348.907
238.6000,-152690,349.05
238.5000,-702433,349.191
238.4000,-1.75684E+006,349.332
238.3000,-3.27019E+006,349.474
238.2000,-5.64515E+006,349.624
238.1000,-6.41198E+006,349.78
238.0000,-6.76694E+006,349.938
237.9000,-5.60719E+006,350.097
237.8000,-3.58034E+006,350.255
237.7000,-3.78251E+006,350.417
237.6000,-5.41783E+006,350.584
237.5000,-7.10594E+006,350.753
237.4000,-8.07912E+006,350.919
237.3000,-9.63253E+006,351.084
237.2000,-1.15143E+007,351.25
237.1000,-1.23746E+007,351.414
237.0000,-1.36938E+007,351.581
236.9000,-1.50686E+007,351.748
236.8000,-1.467E+007,351.919
236.7000,-1.45852E+007,352.088
236.6000,-1.3904E+007,352.254
236.5000,-1.25889E+007,352.424
236.4000,-1.11346E+007,352.595
236.3000,-1.1127E+007,352.771
236.2000,-1.16392E+007,352.951
236.1000,-1.13212E+007,353.133
236.0000,-1.13158E+007,353.311
235.9000,-1.16825E+007,353.482
235.8000,-1.21307E+007,353.66
235.7000,-1.30685E+007,353.837
235.6000,-1.37372E+007,354.016
235.5000,-1.38805E+007,354.2
235.4000,-1.36495E+007,354.388
235.3000,-1.33879E+007,354.572
235.2000,-1.14946E+007,354.763
235.1000,-1.01488E+007,354.965
235.0000,-9.43616E+006,355.168
234.9000,-8.68357E+006,355.364
234.8000,-9.33396E+006,355.557
234.7000,-9.42934E+006,355.758
234.6000,-8.95414E+006,355.949
234.5000,-9.23357E+006,356.147
234.4000,-1.01286E+007,356.349
234.3000,-1.2078E+007,356.537
234.2000,-1.31894E+007,356.721
234.1000,-1.41238E+007,356.913
234.0000,-1.36651E+007,357.109
233.9000,-1.36617E+007,357.3
233.8000,-1.40626E+007,357.495
233.7000,-1.32873E+007,357.698
233.6000,-1.4075E+007,357.889
233.5000,-1.47696E+007,358.092
233.4000,-1.39246E+007,358.3
233.3000,-1.30213E+007,358.509
233.2000,-1.39814E+007,358.726
233.1000,-1.54178E+007,358.932
233.0000,-1.55417E+007,359.143
232.9000,-1.53385E+007,359.35
232.8000,-1.48763E+007,359.562
232.7000,-1.3566E+007,359.778
232.6000,-1.31005E+007,359.993
232.5000,-1.29963E+007,360.208
232.4000,-1.35397E+007,360.421
232.3000,-1.18061E+007,360.644
232.2000,-1.02519E+007,360.862
232.1000,-1.11841E+007,361.082
232.0000,-1.22967E+007,361.298
231.9000,-1.39436E+007,361.512
231.8000,-1.55093E+007,361.721
231.7000,-1.66249E+007,361.935
231.6000,-1.69818E+007,362.15
231.5000,-1.90303E+007,362.358
231.4000,-2.129E+007,362.575
231.3000,-2.21858E+007,362.79
231.2000,-2.29142E+007,363.007
231.1000,-2.22523E+007,363.227
231.0000,-2.22649E+007,363.448
230.9000,-2.23383E+007,363.672
230.8000,-2.31521E+007,363.892
230.7000,-2.19426E+007,364.119
230.6000,-2.20028E+007,364.34
230.5000,-2.31306E+007,364.565
230.4000,-2.32361E+007,364.793
230.3000,-2.30848E+007,365.024
230.2000,-2.23098E+007,365.255
230.1000,-2.22081E+007,365.491
230.0000,-2.21398E+007,365.726
229.9000,-2.23359E+007,365.953
229.8000,-2.19361E+007,366.182
229.7000,-2.15908E+007,366.405
229.6000,-2.15957E+007,366.626
229.5000,-2.15479E+007,366.838
229.4000,-2.10414E+007,367.041
229.3000,-2.1922E+007,367.239
229.2000,-2.19172E+007,367.426
229.1000,-2.02923E+007,367.619
229.0000,-2.01586E+007,367.818
228.9000,-1.97127E+007,368.02
228.8000,-1.86994E+007,368.225
228.7000,-2.02441E+007,368.441
228.6000,-2.10913E+007,368.672
228.5000,-2.26954E+007,368.908
228.4000,-2.15623E+007,369.161
228.3000,-2.26408E+007,369.42
228.2000,-2.35492E+007,369.677
228.1000,-2.39435E+007,369.942
228.0000,-2.40475E+007,370.206
227.9000,-2.37973E+007,370.466
227.8000,-2.41443E+007,370.718
227.7000,-2.47203E+007,370.973
227.6000,-2.58381E+007,371.221
227.5000,-2.72634E+007,371.465
227.4000,-2.75917E+007,371.71
227.3000,-2.66956E+007,371.957
227.2000,-2.55635E+007,372.201
227.1000,-2.45447E+007,372.443
227.0000,-2.48568E+007,372.685
226.9000,-2.52211E+007,372.92
226.8000,-2.55578E+007,373.159
226.7000,-2.61808E+007,373.398
226.6000,-2.78788E+007,373.632
226.5000,-2.90797E+007,373.862
226.4000,-2.9504E+007,374.09
226.3000,-3.11372E+007,374.31
226.2000,-3.17678E+007,374.536
226.1000,-3.12523E+007,374.763
226.0000,-3.05369E+007,374.987
225.9000,-2.94187E+007,375.211
225.8000,-2.71629E+007,375.435
225.7000,-2.6356E+007,375.658
225.6000,-2.78148E+007,375.878
225.5000,-2.92783E+007,376.104
225.4000,-2.92023E+007,376.331
225.3000,-2.92389E+007,376.561
225.2000,-3.06025E+007,376.789
225.1000,-3.18043E+007,377.02
225.0000,-3.25349E+007,377.251
224.9000,-3.17453E+007,377.485
224.8000,-3.0249E+007,377.716
224.7000,-3.00175E+007,377.944
224.6000,-3.10426E+007,378.17
224.5000,-3.05895E+007,378.398
224.4000,-2.9575E+007,378.628
224.3000,-2.88224E+007,378.856
224.2000,-2.86212E+007,379.084
224.1000,-2.91973E+007,379.313
224.0000,-3.00611E+007,379.548
223.9000,-2.93303E+007,379.785
223.8000,-2.62849E+007,380.026
223.7000,-2.69976E+007,380.26
223.6000,-2.81713E+007,380.492
223.5000,-2.81779E+007,380.729
223.4000,-2.85601E+007,380.964
223.3000,-2.94296E+007,381.191
223.2000,-3.06207E+007,381.414
223.1000,-3.31608E+007,381.635
223.0000,-3.65637E+007,381.858
222.9000,-3.83137E+007,382.084
222.8000,-3.87147E+007,382.313
222.7000,-3.77524E+007,382.546
222.6000,-3.76821E+007,382.772
222.5000,-3.74926E+007,383.007
222.4000,-3.70131E+007,383.24
222.3000,-3.45388E+007,383.478
222.2000,-3.11974E+007,383.718
222.1000,-2.81984E+007,383.956
222.0000,-2.67572E+007,384.19
221.9000,-2.6498E+007,384.412
221.8000,-2.64803E+007,384.639
221.7000,-2.61201E+007,384.869
221.6000,-2.48627E+007,385.102
221.5000,-2.52863E+007,385.337
221.4000,-2.60857E+007,385.56
221.3000,-2.78465E+007,385.781
221.2000,-2.9118E+007,386.007
221.1000,-2.94217E+007,386.24
221.0000,-2.86287E+007,386.471
220.9000,-2.78256E+007,386.698
220.8000,-2.69884E+007,386.927
220.7000,-2.61082E+007,387.148
220.6000,-2.65145E+007,387.377
220.5000,-2.66218E+007,387.611
220.4000,-2.674E+007,387.833
220.3000,-2.73153E+007,388.058
220.2000,-2.81179E+007,388.284
220.1000,-2.97988E+007,388.507
220.0000,-3.1371E+007,388.733
219.9000,-3.30281E+007,388.97
219.8000,-3.44086E+007,389.202
219.7000,-3.63909E+007,389.428
219.6000,-3.66026E+007,389.66
219.5000,-3.63848E+007,389.897
219.4000,-3.72486E+007,390.138
219.3000,-3.66798E+007,390.377
219.2000,-3.64877E+007,390.62
219.1000,-3.64238E+007,390.858
219.0000,-3.77904E+007,391.098
218.9000,-3.54883E+007,391.344
218.8000,-3.28238E+007,391.595
218.7000,-3.02191E+007,391.836
218.6000,-2.96066E+007,392.075
218.5000,-2.93364E+007,392.31
218.4000,-2.78901E+007,392.553
218.3000,-2.67582E+007,392.786
218.2000,-2.5103E+007,393.02
218.1000,-2.46849E+007,393.249
218.0000,-2.55361E+007,393.479
217.9000,-2.81698E+007,393.707
217.8000,-2.93271E+007,393.934
217.7000,-2.93256E+007,394.17
217.6000,-2.95518E+007,394.396
217.5000,-3.12453E+007,394.631
217.4000,-3.17242E+007,394.863
217.3000,-3.25136E+007,395.097
217.2000,-3.39676E+007,395.333
217.1000,-3.44919E+007,395.568
217.0000,-3.47488E+007,395.803
216.9000,-3.46309E+007,396.042
216.8000,-3.54868E+007,396.284
216.7000,-3.65624E+007,396.518
216.6000,-3.63302E+007,396.76
216.5000,-3.49789E+007,397.002
216.4000,-3.38115E+007,397.243
216.3000,-3.25372E+007,397.483
216.2000,-3.115E+007,397.736
216.1000,-3.1237E+007,397.982
216.0000,-3.13857E+007,398.224
215.9000,-3.16077E+007,398.465
215.8000,-3.07696E+007,398.703
215.7000,-3.21551E+007,398.945
215.6000,-3.45826E+007,399.188
215.5000,-3.48663E+007,399.439
215.4000,-3.46749E+007,399.685
215.3000,-3.21344E+007,399.932
215.2000,-3.04973E+007,400.176
215.1000,-3.05894E+007,400.429
215.0000,-3.2583E+007,400.683
214.9000,-3.268E+007,400.936
214.8000,-3.01463E+007,401.194
214.7000,-2.92373E+007,401.453
214.6000,-2.98971E+007,401.71
214.5000,-3.13535E+007,401.966
214.4000,-3.25934E+007,402.219
214.3000,-3.27358E+007,402.477
214.2000,-3.1736E+007,402.738
214.1000,-3.02913E+007,402.999
214.0000,-3.04758E+007,403.256
213.9000,-3.17096E+007,403.514
213.8000,-3.09175E+007,403.778
213.7000,-3.01709E+007,404.044
213.6000,-2.87617E+007,404.32
213.5000,-2.80808E+007,404.597
213.4000,-2.64234E+007,404.865
213.3000,-2.55889E+007,405.141
213.2000,-2.58813E+007,405.416
213.1000,-2.69124E+007,405.692
213.0000,-2.52077E+007,405.97
212.9000,-2.42239E+007,406.25
212.8000,-2.62341E+007,406.52
212.7000,-2.75879E+007,406.795
212.6000,-2.80935E+007,407.085
212.5000,-2.8983E+007,407.369
212.4000,-3.05515E+007,407.652
212.3000,-3.20641E+007,407.935
212.2000,-3.34672E+007,408.221
212.1000,-3.55933E+007,408.511
212.0000,-3.60579E+007,408.809
211.9000,-3.378E+007,409.117
211.8000,-3.33905E+007,409.418
211.7000,-3.38266E+007,409.721
211.6000,-3.36556E+007,410.033
211.5000,-3.0865E+007,410.352
211.4000,-2.88417E+007,410.669
211.3000,-2.84258E+007,410.983
211.2000,-2.75102E+007,411.294
211.1000,-2.63663E+007,411.609
211.0000,-2.66185E+007,411.928
210.9000,-2.58724E+007,412.248
210.8000,-2.51491E+007,412.566
210.7000,-2.50016E+007,412.889
210.6000,-2.39553E+007,413.211
210.5000,-2.44257E+007,413.537
210.4000,-2.3112E+007,413.867
210.3000,-2.52815E+007,414.196
210.2000,-2.84212E+007,414.516
210.1000,-3.09633E+007,414.843
210.0000,-3.2578E+007,415.177
209.9000,-3.51614E+007,415.506
209.8000,-3.79598E+007,415.835
209.7000,-3.88201E+007,416.173
209.6000,-4.05908E+007,416.513
209.5000,-4.28621E+007,416.858
209.4000,-4.24166E+007,417.205
209.3000,-4.16899E+007,417.552
209.2000,-4.20506E+007,417.903
209.1000,-4.15807E+007,418.254
209.0000,-4.12323E+007,418.612
208.9000,-4.06818E+007,418.972
208.8000,-3.81064E+007,419.334
208.7000,-3.48948E+007,419.695
208.6000,-3.22261E+007,420.067
208.5000,-3.04187E+007,420.445
208.4000,-3.13843E+007,420.814
208.3000,-3.1484E+007,421.189
208.2000,-3.17892E+007,421.568
208.1000,-3.40869E+007,421.946
208.0000,-3.70582E+007,422.322
207.9000,-3.83952E+007,422.707
207.8000,-3.97535E+007,423.092
207.7000,-4.21382E+007,423.471
207.6000,-4.16843E+007,423.857
207.5000,-3.82209E+007,424.247
207.4000,-3.83351E+007,424.631
207.3000,-3.60601E+007,425.018
207.2000,-3.35143E+007,425.404
207.1000,-3.36894E+007,425.785
207.0000,-3.38367E+007,426.169
206.9000,-3.4684E+007,426.548
206.8000,-3.35028E+007,426.932
206.7000,-3.42649E+007,427.317
206.6000,-3.37597E+007,427.707
206.5000,-3.25323E+007,428.098
206.4000,-3.07066E+007,428.499
206.3000,-3.06714E+007,428.899
206.2000,-3.06377E+007,429.29
206.1000,-3.11622E+007,429.677
206.0000,-3.21544E+007,430.069
205.9000,-3.18834E+007,430.469
205.8000,-3.21372E+007,430.866
205.7000,-3.33203E+007,431.268
205.6000,-3.38131E+007,431.668
205.5000,-3.50512E+007,432.071
205.4000,-3.48924E+007,432.478
205.3000,-3.36079E+007,432.9
205.2000,-2.97285E+007,433.33
205.1000,-2.90333E+007,433.753
205.0000,-2.78879E+007,434.177
204.9000,-2.59783E+007,434.606
204.8000,-2.38882E+007,435.035
204.7000,-2.15802E+007,435.467
204.6000,-2.18732E+007,435.899
204.5000,-1.93733E+007,436.334
204.4000,-1.79166E+007,436.768
204.3000,-1.62277E+007,437.214
204.2000,-1.43603E+007,437.662
204.1000,-1.3144E+007,438.106
204.0000,-1.20712E+007,438.552
203.9000,-1.31144E+007,438.994
203.8000,-1.25937E+007,439.45
203.7000,-1.43886E+007,439.909
203.6000,-1.88869E+007,440.363
203.5000,-1.99106E+007,440.82
203.4000,-2.0221E+007,441.285
203.3000,-2.12062E+007,441.76
203.2000,-2.19917E+007,442.246
203.1000,-2.08849E+007,442.744
203.0000,-2.07344E+007,443.244
202.9000,-1.88614E+007,443.747
202.8000,-1.53665E+007,444.26
202.7000,-1.16526E+007,444.782
202.6000,-8.79367E+006,445.299
202.5000,-8.38089E+006,445.813
202.4000,-9.74446E+006,446.325
202.3000,-9.63957E+006,446.85
202.2000,-6.99312E+006,447.382
202.1000,-2.31295E+006,447.914
202.0000,1.86276E+006,448.455
201.9000,4.13697E+006,449.006
201.8000,5.66465E+006,449.56
201.7000,7.15154E+006,450.124
201.6000,8.68163E+006,450.698
201.5000,1.06929E+007,451.273
201.4000,1.06498E+007,451.851
201.3000,8.12329E+006,452.436
201.2000,4.12772E+006,453.024
201.1000,1.68562E+006,453.612
201.0000,-108714,454.211
200.9000,1.22152E+006,454.827
200.8000,2.72808E+006,455.446
200.7000,3.75648E+006,456.074
200.6000,4.89507E+006,456.716
200.5000,6.26974E+006,457.368
200.4000,7.05842E+006,458.038
200.3000,8.01308E+006,458.721
200.2000,8.86314E+006,459.415
200.1000,8.35054E+006,460.108
200.0000,9.49919E+006,460.819
199.9000,8.72271E+006,461.531
199.8000,1.09576E+007,462.253
199.7000,1.38166E+007,462.976
199.6000,1.70333E+007,463.711
199.5000,2.19406E+007,464.452
199.4000,2.36949E+007,465.194
199.3000,2.48023E+007,465.944
199.2000,2.44615E+007,466.706
199.1000,2.52949E+007,467.486
199.0000,2.43174E+007,468.285
198.9000,2.36443E+007,469.106
198.8000,2.35427E+007,469.951
198.7000,2.28515E+007,470.817
198.6000,2.46575E+007,471.71
198.5000,2.65476E+007,472.624
198.4000,3.09413E+007,473.564
198.3000,3.40232E+007,474.524
198.2000,3.62655E+007,475.514
198.1000,3.65379E+007,476.529
198.0000,3.75265E+007,477.577
197.9000,3.92025E+007,478.652
197.8000,4.06899E+007,479.767
197.7000,4.01551E+007,480.92
197.6000,3.95913E+007,482.097
197.5000,4.06737E+007,483.297
197.4000,4.13717E+007,484.509
197.3000,4.49021E+007,485.726
197.2000,4.66247E+007,486.934
197.1000,4.60119E+007,488.122
197.0000,4.6378E+007,489.307
196.9000,5.0712E+007,490.497
196.8000,5.65346E+007,491.694
196.7000,6.06608E+007,492.91
196.6000,6.35771E+007,494.155
196.5000,6.67698E+007,495.433
196.4000,6.69048E+007,496.77
196.3000,7.06919E+007,498.187
196.2000,7.46177E+007,499.679
196.1000,7.01951E+007,501.221
196.0000,6.86343E+007,502.848
195.9000,6.72116E+007,504.571
195.8000,6.70258E+007,506.388
195.7000,6.69123E+007,508.331
195.6000,6.84789E+007,510.4
195.5000,6.82517E+007,512.589
195.4000,6.23757E+007,514.886
195.3000,6.48978E+007,517.311
195.2000,6.58009E+007,519.816
195.1000,6.30625E+007,522.375
195.0000,6.39824E+007,524.947
194.9000,6.09408E+007,527.456
194.8000,5.7947E+007,529.866
194.7000,5.83355E+007,532.157
194.6000,6.3118E+007,534.345
194.5000,6.41229E+007,536.425
194.4000,6.5761E+007,538.443
194.3000,7.16599E+007,540.434
194.2000,8.11892E+007,542.467
194.1000,9.23874E+007,544.609
194.0000,9.65356E+007,546.891
193.9000,1.00696E+008,549.402
193.8000,1.00488E+008,552.159
193.7000,9.91237E+007,555.197
193.6000,1.00928E+008,558.55
193.5000,1.00052E+008,562.257
193.4000,9.34958E+007,566.335
193.3000,8.18091E+007,570.799
193.2000,7.99304E+007,575.662
193.1000,7.33695E+007,580.865
193.0000,7.55119E+007,586.375
192.9000,7.83748E+007,592.083
192.8000,8.03338E+007,597.883
192.7000,8.77989E+007,603.62
192.6000,9.4971E+007,609.051
192.5000,1.02725E+008,614.057
192.4000,9.66465E+007,618.57
192.3000,9.34709E+007,622.647
192.2000,9.67813E+007,626.318
192.1000,9.1491E+007,629.634
192.0000,9.19948E+007,632.746
191.9000,8.88801E+007,635.804
191.8000,7.4394E+007,639.06
191.7000,6.2513E+007,642.782
191.6000,6.55765E+007,647.109
191.5000,8.22627E+007,652.08
191.4000,9.38865E+007,657.674
191.3000,1.04317E+008,663.976
191.2000,1.08702E+008,671.012
191.1000,1.14935E+008,678.801
191.0000,1.23106E+008,687.279
190.9000,1.29101E+008,696.328
190.8000,1.30634E+008,705.799
190.7000,1.36925E+008,715.664
190.6000,1.56069E+008,725.768
190.5000,1.8141E+008,735.867
190.4000,1.9737E+008,745.588
190.3000,1.8323E+008,754.657
190.2000,1.51066E+008,762.964
190.1000,1.31472E+008,770.575
190.0000,1.41587E+008,777.588

##### Extended Information
[Comments]
Sample name,ACE2_D2_0.1uM
Comment
User
Division
Company,CSIR-IMTECH

[Detailed Information]
Creation date,2/26/2024 3:17 PM

Data array type,Linear data array * 2
Horizontal axis,Wavelength [nm]
Vertical axis(1),Mol. Ellip.
Vertical axis(2),HT [V]
Start,350 nm
End,190 nm
Data interval,0.1 nm
Data points,1601    

[Measurement Information]
Instrument Name,JASCO CD
Model Name,J-815
Serial No.,B063061168

Accessory,PTC-423S
Accessory S/N,C013945-01
  Temperature,37.32 C
  Control Sonsor,Cell
  Monitor Sensor,Cell
  Start Mode,Start immediately
  Cell Length,10 mm

Measurement date,2/26/2024 3:16 PM

Photometric Mode,CD, HT
Measure Range,350 - 190 nm
Data pitch,0.1 nm
Sensitivity,Standard
D.I.T.,1 sec
Bandwidth,1.00 nm
Start Mode,Immediately
Scanning Speed,50 nm/min
Baseline Correction,Baseline
Shutter Control,Manual
CD Detector,PMT
PMT Voltage,Auto
Accumulations,3
Concentration,0.1 umol/L

