TITLE	ACE2_doxer_0.6uM
DATA TYPE	
ORIGIN	JASCO
OWNER	
DATE	24/04/08
TIME	19:02:52
SPECTROMETER/DATA SYSTEM	
LOCALE	1033
RESOLUTION	
DELTAX	-0.1
XUNITS	NANOMETERS
YUNITS	Mol. Ellip.
Y2UNITS	HT [V]
FIRSTX	  350.0000
LASTX	  190.0000
NPOINTS	    1601
FIRSTY	-2835642.25000
MAXY	25188996.00000
MINY	-9736862.00000
XYDATA
350.0000	-2.83564E+006	493.041
349.9000	-611036	492.443
349.8000	509915	491.526
349.7000	1.35772E+006	490.59
349.6000	1.35247E+006	489.909
349.5000	1.71141E+006	489.314
349.4000	2.3288E+006	488.398
349.3000	3.54282E+006	487.748
349.2000	2.97104E+006	487.18
349.1000	2.37116E+006	486.293
349.0000	2.27633E+006	485.633
348.9000	2.5806E+006	485.057
348.8000	2.84759E+006	484.15
348.7000	2.62131E+006	483.228
348.6000	2.74756E+006	482.547
348.5000	2.69263E+006	481.937
348.4000	2.21688E+006	480.952
348.3000	1.65224E+006	480.195
348.2000	1.15462E+006	479.519
348.1000	385979	478.542
348.0000	313538	477.806
347.9000	-87102.5	477.156
347.8000	-1.06786E+006	476.218
347.7000	-2.60191E+006	475.274
347.6000	-3.64284E+006	474.609
347.5000	-3.80745E+006	474.068
347.4000	-3.45784E+006	473.232
347.3000	-2.16555E+006	472.612
347.2000	-1.88418E+006	472.075
347.1000	-1.5775E+006	471.266
347.0000	-1.06615E+006	470.672
346.9000	-712858	470.158
346.8000	-213475	469.359
346.7000	561569	468.551
346.6000	669713	467.945
346.5000	289072	467.127
346.4000	-260690	466.292
346.3000	-665957	465.645
346.2000	-1.45833E+006	464.799
346.1000	-676851	463.952
346.0000	261149	463.319
345.9000	652225	462.762
345.8000	972184	461.902
345.7000	1.49845E+006	461.27
345.6000	2.3349E+006	460.737
345.5000	2.79174E+006	459.972
345.4000	3.18149E+006	459.416
345.3000	2.50341E+006	458.939
345.2000	2.05096E+006	458.195
345.1000	1.54209E+006	457.444
345.0000	1.41449E+006	456.903
344.9000	1.5315E+006	456.211
344.8000	1.51981E+006	455.505
344.7000	2.0535E+006	454.961
344.6000	1.85789E+006	454.241
344.5000	2.14002E+006	453.508
344.4000	2.51951E+006	452.961
344.3000	3.04579E+006	452.238
344.2000	3.25884E+006	451.505
344.1000	3.05694E+006	450.945
344.0000	2.31303E+006	450.216
343.9000	1.27129E+006	449.48
343.8000	-129539	448.935
343.7000	-843730	448.471
343.6000	-1.49105E+006	447.774
343.5000	-1.99903E+006	447.27
343.4000	-2.24977E+006	446.845
343.3000	-2.197E+006	446.155
343.2000	-2.59687E+006	445.643
343.1000	-2.81136E+006	445.2
343.0000	-2.77874E+006	444.568
342.9000	-1.90689E+006	443.926
342.8000	-1.34538E+006	443.439
342.7000	-923466	442.775
342.6000	-1.37304E+006	442.089
342.5000	-2.47602E+006	441.583
342.4000	-2.08664E+006	440.978
342.3000	-1.16079E+006	440.37
342.2000	352454	439.901
342.1000	1.15549E+006	439.279
342.0000	1.22146E+006	438.652
341.9000	1.02065E+006	438.207
341.8000	855790	437.622
341.7000	1.80085E+006	437.042
341.6000	1.8834E+006	436.602
341.5000	1.17908E+006	436.031
341.4000	-85138.5	435.447
341.3000	-927018	435.013
341.2000	-1.40854E+006	434.42
341.1000	-2.16557E+006	433.806
341.0000	-3.10755E+006	433.345
340.9000	-3.39205E+006	432.75
340.8000	-3.68105E+006	432.14
340.7000	-3.71857E+006	431.662
340.6000	-3.574E+006	431.074
340.5000	-3.03912E+006	430.484
340.4000	-3.11575E+006	430.047
340.3000	-2.57147E+006	429.484
340.2000	-2.07539E+006	428.917
340.1000	-1.11413E+006	428.512
340.0000	-546016	428.005
339.9000	-471562	427.494
339.8000	-850433	427.106
339.7000	-980013	426.609
339.6000	-689931	426.111
339.5000	-25873.7	425.764
339.4000	296399	425.283
339.3000	93274.8	424.773
339.2000	-745666	424.214
339.1000	-978275	423.71
339.0000	-907098	423.193
338.9000	-973096	422.608
338.8000	-1.4006E+006	422.067
338.7000	-1.93044E+006	421.515
338.6000	-1.92266E+006	420.922
338.5000	-1.20255E+006	420.408
338.4000	-665853	420.023
338.3000	-309465	419.549
338.2000	527160	419.076
338.1000	1.19901E+006	418.74
338.0000	1.56517E+006	418.294
337.9000	2.42162E+006	417.849
337.8000	2.54959E+006	417.535
337.7000	2.06775E+006	417.125
337.6000	1.92657E+006	416.696
337.5000	2.18815E+006	416.367
337.4000	1.58368E+006	415.935
337.3000	1.5441E+006	415.487
337.2000	1.86704E+006	414.997
337.1000	1.48567E+006	414.551
337.0000	802259	414.093
336.9000	543800	413.599
336.8000	-65380.6	413.161
336.7000	-497914	412.727
336.6000	-260782	412.256
336.5000	-667186	411.822
336.4000	-936635	411.517
336.3000	-1.42859E+006	411.093
336.2000	-1.2257E+006	410.665
336.1000	-864070	410.355
336.0000	-233631	409.967
335.9000	388498	409.555
335.8000	-10824.1	409.09
335.7000	1672.09	408.676
335.6000	20561.9	408.257
335.5000	157231	407.821
335.4000	-191368	407.435
335.3000	-584880	407.045
335.2000	-551183	406.636
335.1000	-558750	406.274
335.0000	-372755	406.03
334.9000	-7600.19	405.682
334.8000	270553	405.315
334.7000	-26647.3	404.923
334.6000	395383	404.589
334.5000	701383	404.247
334.4000	564298	403.827
334.3000	602184	403.434
334.2000	678387	403.03
334.1000	456176	402.596
334.0000	167129	402.221
333.9000	159449	401.938
333.8000	122594	401.564
333.7000	23881.5	401.182
333.6000	-6248.9	400.777
333.5000	-204931	400.427
333.4000	-607911	400.076
333.3000	-943138	399.708
333.2000	-999498	399.389
333.1000	-857084	399.068
333.0000	-1.03002E+006	398.718
332.9000	-1.3879E+006	398.4
332.8000	-1.61888E+006	398.041
332.7000	-1.45006E+006	397.725
332.6000	-1.30871E+006	397.4
332.5000	-848481	397.044
332.4000	-794157	396.724
332.3000	-828616	396.4
332.2000	-852251	396.033
332.1000	-92059.3	395.706
332.0000	349759	395.358
331.9000	409734	395.058
331.8000	25569.8	394.754
331.7000	-177463	394.406
331.6000	161816	394.091
331.5000	371979	393.655
331.4000	566209	393.309
331.3000	349745	393
331.2000	147024	392.661
331.1000	208563	392.359
331.0000	741305	392.053
330.9000	955010	391.734
330.8000	833696	391.454
330.7000	525652	391.137
330.6000	434290	390.863
330.5000	389930	390.587
330.4000	386078	390.285
330.3000	311166	390.017
330.2000	-105622	389.639
330.1000	-289030	389.336
330.0000	-582297	389.063
329.9000	-658619	388.759
329.8000	-456812	388.487
329.7000	-353667	388.119
329.6000	-146857	387.831
329.5000	-726767	387.572
329.4000	-664426	387.262
329.3000	-522317	386.984
329.2000	-372691	386.606
329.1000	-423279	386.307
329.0000	-512026	386.052
328.9000	-543057	385.771
328.8000	-731906	385.517
328.7000	-319087	385.173
328.6000	89934.7	384.919
328.5000	472281	384.711
328.4000	765031	384.442
328.3000	684701	384.197
328.2000	754445	383.883
328.1000	892908	383.637
328.0000	718474	383.416
327.9000	510189	383.132
327.8000	186268	382.876
327.7000	-69997.4	382.593
327.6000	-242317	382.407
327.5000	-200765	382.27
327.4000	-148216	381.991
327.3000	-419462	381.722
327.2000	-551547	381.412
327.1000	-540844	381.197
327.0000	-911396	381.02
326.9000	-1.26803E+006	380.733
326.8000	-1.58111E+006	380.438
326.7000	-1.62212E+006	380.103
326.6000	-1.50702E+006	379.899
326.5000	-1.65157E+006	379.76
326.4000	-1.61006E+006	379.481
326.3000	-1.65439E+006	379.2
326.2000	-1.39748E+006	378.907
326.1000	-1.2059E+006	378.709
326.0000	-1.13727E+006	378.386
325.9000	-1.50536E+006	378.087
325.8000	-1.66403E+006	377.8
325.7000	-1.85276E+006	377.534
325.6000	-1.54041E+006	377.394
325.5000	-1.2076E+006	377.108
325.4000	-1.09672E+006	376.825
325.3000	-1.03665E+006	376.533
325.2000	-1.04651E+006	376.362
325.1000	-1.04562E+006	376.249
325.0000	-1.17517E+006	375.966
324.9000	-1.28612E+006	375.663
324.8000	-1.26563E+006	375.348
324.7000	-1.38773E+006	375.188
324.6000	-1.64711E+006	375.103
324.5000	-1.62887E+006	374.828
324.4000	-1.66176E+006	374.549
324.3000	-1.62565E+006	374.294
324.2000	-1.43397E+006	374.159
324.1000	-1.24524E+006	373.893
324.0000	-1.04416E+006	373.621
323.9000	-1.42705E+006	373.331
323.8000	-1.29594E+006	373.066
323.7000	-1.58675E+006	372.93
323.6000	-1.403E+006	372.656
323.5000	-1.17528E+006	372.354
323.4000	-863967	372.055
323.3000	-574790	371.897
323.2000	-662949	371.798
323.1000	-738452	371.532
323.0000	-1.1535E+006	371.243
322.9000	-1.12225E+006	370.955
322.8000	-975939	370.815
322.7000	-967142	370.561
322.6000	-788246	370.282
322.5000	-555503	369.996
322.4000	-358738	369.711
322.3000	236550	369.537
322.2000	768124	369.236
322.1000	1.16103E+006	368.911
322.0000	1.37138E+006	368.588
321.9000	1.42926E+006	368.396
321.8000	1.12374E+006	368.092
321.7000	695890	367.777
321.6000	380055	367.457
321.5000	-45824.3	367.162
321.4000	-584581	367.006
321.3000	-711886	366.784
321.2000	-617067	366.562
321.1000	-894805	366.341
321.0000	-1.1939E+006	366.261
320.9000	-1.31726E+006	366.104
320.8000	-1.72237E+006	365.945
320.7000	-1.76438E+006	365.8
320.6000	-1.40679E+006	365.653
320.5000	-1.3499E+006	365.605
320.4000	-1.65467E+006	365.435
320.3000	-1.87909E+006	365.248
320.2000	-1.85028E+006	365.078
320.1000	-1.83576E+006	365.014
320.0000	-1.41641E+006	364.848
319.9000	-892552	364.664
319.8000	-938763	364.472
319.7000	-1.17822E+006	364.273
319.6000	-1.25324E+006	364.05
319.5000	-909536	363.889
319.4000	-472213	363.709
319.3000	-324260	363.494
319.2000	-243024	363.384
319.1000	-479032	363.179
319.0000	-362078	362.959
318.9000	-92285.3	362.739
318.8000	180496	362.619
318.7000	224519	362.389
318.6000	277280	362.15
318.5000	538796	361.949
318.4000	522522	361.746
318.3000	378392	361.521
318.2000	26707.7	361.347
318.1000	-592032	361.169
318.0000	-625244	360.978
317.9000	-453194	360.903
317.8000	-652406	360.775
317.7000	-1.16566E+006	360.62
317.6000	-1.55768E+006	360.428
317.5000	-1.69633E+006	360.328
317.4000	-1.63382E+006	360.157
317.3000	-1.12394E+006	359.978
317.2000	-980126	359.783
317.1000	-1.29509E+006	359.58
317.0000	-1.63269E+006	359.316
316.9000	-1.60303E+006	359.094
316.8000	-1.85539E+006	358.89
316.7000	-2.06404E+006	358.685
316.6000	-2.31576E+006	358.483
316.5000	-2.45628E+006	358.322
316.4000	-2.64243E+006	358.146
316.3000	-3.02922E+006	357.967
316.2000	-2.98443E+006	357.797
316.1000	-2.45348E+006	357.679
316.0000	-1.86679E+006	357.562
315.9000	-1.60484E+006	357.401
315.8000	-1.5906E+006	357.295
315.7000	-1.59032E+006	357.121
315.6000	-1.39532E+006	356.969
315.5000	-1.09709E+006	356.79
315.4000	-939834	356.676
315.3000	-1.1686E+006	356.47
315.2000	-1.68833E+006	356.252
315.1000	-1.9757E+006	356.06
315.0000	-1.9689E+006	355.877
314.9000	-1.95204E+006	355.692
314.8000	-2.21028E+006	355.533
314.7000	-2.58319E+006	355.359
314.6000	-2.63036E+006	355.193
314.5000	-2.82944E+006	355.038
314.4000	-2.98485E+006	354.924
314.3000	-2.85725E+006	354.783
314.2000	-2.87037E+006	354.64
314.1000	-2.77506E+006	354.449
314.0000	-2.76743E+006	354.281
313.9000	-2.76E+006	354.114
313.8000	-2.74608E+006	353.959
313.7000	-2.71048E+006	353.733
313.6000	-2.68052E+006	353.528
313.5000	-2.52498E+006	353.34
313.4000	-2.35625E+006	353.158
313.3000	-2.27962E+006	352.985
313.2000	-2.36954E+006	352.84
313.1000	-2.44518E+006	352.681
313.0000	-2.42052E+006	352.526
312.9000	-2.40958E+006	352.384
312.8000	-2.09506E+006	352.284
312.7000	-1.99336E+006	352.148
312.6000	-2.07466E+006	352.01
312.5000	-2.1209E+006	351.84
312.4000	-2.18819E+006	351.682
312.3000	-2.06634E+006	351.512
312.2000	-1.82942E+006	351.347
312.1000	-1.89748E+006	351.116
312.0000	-2.19595E+006	350.901
311.9000	-2.34876E+006	350.696
311.8000	-2.40386E+006	350.456
311.7000	-2.39098E+006	350.263
311.6000	-2.32863E+006	350.059
311.5000	-2.00669E+006	349.891
311.4000	-1.80681E+006	349.681
311.3000	-1.76418E+006	349.546
311.2000	-1.75577E+006	349.417
311.1000	-1.84912E+006	349.306
311.0000	-1.86885E+006	349.182
310.9000	-2.05711E+006	349.078
310.8000	-2.12909E+006	348.964
310.7000	-2.35391E+006	348.862
310.6000	-2.35192E+006	348.727
310.5000	-2.44013E+006	348.609
310.4000	-2.36681E+006	348.495
310.3000	-2.01573E+006	348.394
310.2000	-1.78599E+006	348.302
310.1000	-1.54995E+006	348.227
310.0000	-1.2368E+006	348.148
309.9000	-1.04036E+006	348.078
309.8000	-1.10041E+006	348.013
309.7000	-1.32831E+006	347.918
309.6000	-1.18046E+006	347.845
309.5000	-1.17067E+006	347.728
309.4000	-1.17155E+006	347.628
309.3000	-1.29328E+006	347.483
309.2000	-1.33911E+006	347.363
309.1000	-1.46264E+006	347.182
309.0000	-1.67777E+006	347.029
308.9000	-1.3847E+006	346.895
308.8000	-1.42834E+006	346.771
308.7000	-1.61583E+006	346.66
308.6000	-1.94223E+006	346.561
308.5000	-1.92372E+006	346.455
308.4000	-1.74928E+006	346.339
308.3000	-1.68905E+006	346.271
308.2000	-1.43728E+006	346.165
308.1000	-1.47337E+006	346.08
308.0000	-1.44238E+006	345.971
307.9000	-1.32806E+006	345.88
307.8000	-1.34187E+006	345.733
307.7000	-1.29083E+006	345.618
307.6000	-1.2988E+006	345.488
307.5000	-1.41805E+006	345.309
307.4000	-1.66581E+006	345.17
307.3000	-1.94666E+006	345.041
307.2000	-2.269E+006	344.938
307.1000	-2.6271E+006	344.793
307.0000	-2.7775E+006	344.688
306.9000	-2.89994E+006	344.583
306.8000	-3.16543E+006	344.515
306.7000	-3.45265E+006	344.442
306.6000	-3.45989E+006	344.352
306.5000	-3.03275E+006	344.271
306.4000	-2.96171E+006	344.143
306.3000	-2.79653E+006	344.049
306.2000	-2.71519E+006	343.928
306.1000	-2.72318E+006	343.819
306.0000	-2.62714E+006	343.671
305.9000	-2.66722E+006	343.562
305.8000	-2.73378E+006	343.478
305.7000	-2.97519E+006	343.358
305.6000	-3.17508E+006	343.273
305.5000	-3.50344E+006	343.183
305.4000	-3.68146E+006	343.126
305.3000	-3.56336E+006	343.03
305.2000	-3.44315E+006	342.962
305.1000	-3.24795E+006	342.878
305.0000	-3.22951E+006	342.751
304.9000	-3.59992E+006	342.658
304.8000	-3.57981E+006	342.546
304.7000	-3.47964E+006	342.448
304.6000	-3.197E+006	342.315
304.5000	-3.32466E+006	342.2
304.4000	-3.4143E+006	342.105
304.3000	-3.22829E+006	341.987
304.2000	-3.10613E+006	341.918
304.1000	-2.59438E+006	341.855
304.0000	-2.35882E+006	341.817
303.9000	-2.28395E+006	341.729
303.8000	-2.12081E+006	341.646
303.7000	-1.67833E+006	341.593
303.6000	-1.66696E+006	341.485
303.5000	-1.68062E+006	341.411
303.4000	-1.94095E+006	341.317
303.3000	-2.33598E+006	341.194
303.2000	-2.4647E+006	341.078
303.1000	-2.51963E+006	340.986
303.0000	-2.54362E+006	340.929
302.9000	-2.74428E+006	340.831
302.8000	-2.70088E+006	340.752
302.7000	-2.84423E+006	340.689
302.6000	-2.9132E+006	340.597
302.5000	-2.71216E+006	340.545
302.4000	-2.53284E+006	340.485
302.3000	-2.56974E+006	340.384
302.2000	-2.69223E+006	340.289
302.1000	-2.79429E+006	340.197
302.0000	-3.09139E+006	340.134
301.9000	-3.00695E+006	340.043
301.8000	-3.12755E+006	339.961
301.7000	-3.35449E+006	339.896
301.6000	-3.38709E+006	339.8
301.5000	-3.3584E+006	339.746
301.4000	-3.11397E+006	339.694
301.3000	-2.80473E+006	339.612
301.2000	-2.51634E+006	339.537
301.1000	-2.42383E+006	339.472
301.0000	-2.39762E+006	339.439
300.9000	-2.34063E+006	339.361
300.8000	-2.36868E+006	339.283
300.7000	-2.6943E+006	339.22
300.6000	-2.87284E+006	339.136
300.5000	-3.18698E+006	339.069
300.4000	-3.5565E+006	339.019
300.3000	-3.60686E+006	338.942
300.2000	-3.59103E+006	338.865
300.1000	-3.58785E+006	338.801
300.0000	-3.56917E+006	338.734
299.9000	-3.28504E+006	338.678
299.8000	-3.04583E+006	338.625
299.7000	-3.0439E+006	338.555
299.6000	-2.75193E+006	338.492
299.5000	-2.47692E+006	338.43
299.4000	-2.52868E+006	338.379
299.3000	-2.64806E+006	338.309
299.2000	-2.42841E+006	338.257
299.1000	-2.52434E+006	338.215
299.0000	-2.50309E+006	338.148
298.9000	-2.38829E+006	338.096
298.8000	-2.13593E+006	338.059
298.7000	-2.32385E+006	337.996
298.6000	-2.54063E+006	337.943
298.5000	-2.73113E+006	337.888
298.4000	-2.83477E+006	337.819
298.3000	-2.83139E+006	337.757
298.2000	-2.75594E+006	337.692
298.1000	-2.77461E+006	337.626
298.0000	-3.00613E+006	337.564
297.9000	-2.88344E+006	337.513
297.8000	-2.69218E+006	337.441
297.7000	-2.09479E+006	337.387
297.6000	-1.74803E+006	337.344
297.5000	-1.70605E+006	337.275
297.4000	-1.98944E+006	337.223
297.3000	-2.25189E+006	337.178
297.2000	-2.19481E+006	337.106
297.1000	-2.17254E+006	337.051
297.0000	-2.23676E+006	336.999
296.9000	-2.6383E+006	336.923
296.8000	-3.03008E+006	336.862
296.7000	-3.34488E+006	336.815
296.6000	-3.12102E+006	336.783
296.5000	-3.0285E+006	336.733
296.4000	-3.1311E+006	336.694
296.3000	-3.18189E+006	336.663
296.2000	-3.2665E+006	336.618
296.1000	-3.13764E+006	336.58
296.0000	-2.796E+006	336.554
295.9000	-2.55345E+006	336.509
295.8000	-2.31317E+006	336.444
295.7000	-2.07284E+006	336.402
295.6000	-1.89283E+006	336.354
295.5000	-1.73317E+006	336.29
295.4000	-1.75221E+006	336.216
295.3000	-1.73254E+006	336.172
295.2000	-1.90981E+006	336.11
295.1000	-2.15223E+006	336.034
295.0000	-2.33411E+006	335.991
294.9000	-2.79393E+006	335.93
294.8000	-2.87142E+006	335.858
294.7000	-2.78987E+006	335.813
294.6000	-2.77583E+006	335.772
294.5000	-2.77078E+006	335.712
294.4000	-2.7514E+006	335.668
294.3000	-2.65436E+006	335.638
294.2000	-2.62103E+006	335.581
294.1000	-2.36615E+006	335.541
294.0000	-2.37941E+006	335.512
293.9000	-2.60983E+006	335.461
293.8000	-2.60196E+006	335.428
293.7000	-2.83301E+006	335.402
293.6000	-2.83254E+006	335.351
293.5000	-2.81768E+006	335.288
293.4000	-2.70388E+006	335.258
293.3000	-2.49393E+006	335.217
293.2000	-2.36907E+006	335.164
293.1000	-2.24171E+006	335.138
293.0000	-2.16091E+006	335.09
292.9000	-1.87015E+006	335.04
292.8000	-1.85621E+006	335.017
292.7000	-1.76735E+006	334.991
292.6000	-1.74202E+006	334.947
292.5000	-2.14154E+006	334.884
292.4000	-2.39844E+006	334.845
292.3000	-2.19053E+006	334.794
292.2000	-2.15928E+006	334.742
292.1000	-2.45721E+006	334.711
292.0000	-2.72092E+006	334.664
291.9000	-2.6847E+006	334.609
291.8000	-2.62274E+006	334.563
291.7000	-2.40284E+006	334.547
291.6000	-2.00733E+006	334.507
291.5000	-2.06144E+006	334.46
291.4000	-1.91984E+006	334.438
291.3000	-1.78149E+006	334.385
291.2000	-1.6954E+006	334.316
291.1000	-1.75811E+006	334.248
291.0000	-1.83596E+006	334.198
290.9000	-1.88492E+006	334.123
290.8000	-1.91749E+006	334.029
290.7000	-1.84321E+006	333.932
290.6000	-2.16692E+006	333.819
290.5000	-2.38805E+006	333.685
290.4000	-2.41636E+006	333.551
290.3000	-2.36542E+006	333.433
290.2000	-2.48118E+006	333.287
290.1000	-2.82177E+006	333.128
290.0000	-3.1381E+006	332.983
289.9000	-3.37601E+006	332.879
289.8000	-3.34212E+006	332.784
289.7000	-3.33014E+006	332.712
289.6000	-3.27542E+006	332.678
289.5000	-3.36196E+006	332.681
289.4000	-3.38096E+006	332.713
289.3000	-3.09397E+006	332.781
289.2000	-2.94272E+006	332.868
289.1000	-2.77475E+006	332.979
289.0000	-2.75115E+006	333.084
288.9000	-2.49293E+006	333.191
288.8000	-2.4623E+006	333.287
288.7000	-2.40629E+006	333.372
288.6000	-2.07288E+006	333.437
288.5000	-2.13319E+006	333.482
288.4000	-2.31201E+006	333.51
288.3000	-2.31481E+006	333.529
288.2000	-2.40896E+006	333.525
288.1000	-2.60822E+006	333.514
288.0000	-2.82889E+006	333.489
287.9000	-3.02321E+006	333.451
287.8000	-3.26851E+006	333.424
287.7000	-3.43971E+006	333.393
287.6000	-3.24458E+006	333.37
287.5000	-3.27272E+006	333.332
287.4000	-3.26202E+006	333.312
287.3000	-3.09135E+006	333.292
287.2000	-3.12788E+006	333.272
287.1000	-2.92716E+006	333.257
287.0000	-2.7379E+006	333.219
286.9000	-2.32277E+006	333.202
286.8000	-2.16385E+006	333.187
286.7000	-2.19006E+006	333.167
286.6000	-1.99459E+006	333.143
286.5000	-2.10646E+006	333.132
286.4000	-1.78642E+006	333.127
286.3000	-1.67322E+006	333.123
286.2000	-1.8578E+006	333.115
286.1000	-2.01141E+006	333.1
286.0000	-2.09998E+006	333.099
285.9000	-1.95791E+006	333.09
285.8000	-1.83957E+006	333.088
285.7000	-1.7753E+006	333.058
285.6000	-2.00406E+006	333.032
285.5000	-2.1929E+006	333.03
285.4000	-2.18385E+006	333.03
285.3000	-2.07796E+006	333.036
285.2000	-2.2323E+006	333.01
285.1000	-2.31913E+006	332.994
285.0000	-2.47077E+006	332.997
284.9000	-2.42991E+006	332.992
284.8000	-2.27897E+006	332.993
284.7000	-2.23527E+006	332.964
284.6000	-2.17623E+006	332.942
284.5000	-2.23129E+006	332.94
284.4000	-2.03598E+006	332.944
284.3000	-1.98476E+006	332.954
284.2000	-1.90227E+006	332.934
284.1000	-2.15356E+006	332.922
284.0000	-2.4582E+006	332.897
283.9000	-2.36718E+006	332.897
283.8000	-2.17479E+006	332.908
283.7000	-1.9306E+006	332.894
283.6000	-2.08657E+006	332.878
283.5000	-2.11321E+006	332.858
283.4000	-2.31988E+006	332.847
283.3000	-2.29657E+006	332.859
283.2000	-2.30287E+006	332.872
283.1000	-2.54906E+006	332.88
283.0000	-2.76141E+006	332.87
282.9000	-3.15104E+006	332.862
282.8000	-3.1954E+006	332.858
282.7000	-3.33518E+006	332.873
282.6000	-3.33062E+006	332.889
282.5000	-3.31113E+006	332.891
282.4000	-3.21703E+006	332.888
282.3000	-2.97611E+006	332.887
282.2000	-2.81531E+006	332.886
282.1000	-2.66971E+006	332.905
282.0000	-2.46498E+006	332.923
281.9000	-2.22071E+006	332.929
281.8000	-2.06498E+006	332.925
281.7000	-2.09392E+006	332.917
281.6000	-2.1983E+006	332.912
281.5000	-2.12611E+006	332.907
281.4000	-2.10886E+006	332.922
281.3000	-2.0965E+006	332.927
281.2000	-2.1187E+006	332.921
281.1000	-2.18707E+006	332.911
281.0000	-2.26277E+006	332.9
280.9000	-2.17944E+006	332.894
280.8000	-2.11357E+006	332.884
280.7000	-2.19395E+006	332.876
280.6000	-2.25319E+006	332.875
280.5000	-2.38709E+006	332.863
280.4000	-2.51213E+006	332.852
280.3000	-2.55223E+006	332.842
280.2000	-2.71394E+006	332.833
280.1000	-2.66748E+006	332.824
280.0000	-2.493E+006	332.818
279.9000	-2.4914E+006	332.807
279.8000	-2.46594E+006	332.783
279.7000	-2.4755E+006	332.775
279.6000	-2.56536E+006	332.768
279.5000	-2.65178E+006	332.761
279.4000	-2.63257E+006	332.757
279.3000	-2.74824E+006	332.751
279.2000	-2.97512E+006	332.747
279.1000	-2.82702E+006	332.75
279.0000	-2.70153E+006	332.756
278.9000	-2.63953E+006	332.749
278.8000	-2.53515E+006	332.758
278.7000	-2.38763E+006	332.769
278.6000	-2.11528E+006	332.783
278.5000	-2.01502E+006	332.801
278.4000	-1.87503E+006	332.817
278.3000	-1.89554E+006	332.832
278.2000	-2.00188E+006	332.845
278.1000	-1.76941E+006	332.859
278.0000	-1.56235E+006	332.859
277.9000	-1.42233E+006	332.851
277.8000	-1.55011E+006	332.843
277.7000	-1.53428E+006	332.839
277.6000	-1.53332E+006	332.853
277.5000	-1.35111E+006	332.868
277.4000	-1.34421E+006	332.881
277.3000	-1.42856E+006	332.897
277.2000	-1.43832E+006	332.912
277.1000	-1.51298E+006	332.93
277.0000	-1.61257E+006	332.949
276.9000	-1.56675E+006	332.966
276.8000	-1.40696E+006	332.967
276.7000	-1.36515E+006	332.967
276.6000	-1.45492E+006	332.967
276.5000	-1.48443E+006	332.975
276.4000	-1.47323E+006	332.981
276.3000	-1.34788E+006	332.986
276.2000	-1.16782E+006	332.99
276.1000	-1.2619E+006	332.992
276.0000	-1.50118E+006	333.014
275.9000	-1.63775E+006	333.032
275.8000	-1.60355E+006	333.047
275.7000	-1.31643E+006	333.064
275.6000	-1.31039E+006	333.081
275.5000	-1.41062E+006	333.1
275.4000	-1.52995E+006	333.122
275.3000	-1.49649E+006	333.143
275.2000	-1.31012E+006	333.148
275.1000	-1.24727E+006	333.149
275.0000	-1.14688E+006	333.155
274.9000	-1.30053E+006	333.157
274.8000	-1.46102E+006	333.156
274.7000	-1.31957E+006	333.159
274.6000	-1.13587E+006	333.164
274.5000	-1.04324E+006	333.169
274.4000	-1.322E+006	333.174
274.3000	-1.63899E+006	333.182
274.2000	-1.91617E+006	333.188
274.1000	-2.15535E+006	333.198
274.0000	-2.18067E+006	333.214
273.9000	-2.58264E+006	333.228
273.8000	-2.90968E+006	333.238
273.7000	-3.20073E+006	333.247
273.6000	-3.33613E+006	333.258
273.5000	-3.42292E+006	333.274
273.4000	-3.54464E+006	333.288
273.3000	-3.44485E+006	333.31
273.2000	-3.40667E+006	333.327
273.1000	-3.26796E+006	333.338
273.0000	-3.02916E+006	333.351
272.9000	-2.8613E+006	333.37
272.8000	-2.74508E+006	333.393
272.7000	-2.25139E+006	333.416
272.6000	-1.66113E+006	333.438
272.5000	-1.42282E+006	333.452
272.4000	-1.38283E+006	333.465
272.3000	-1.29408E+006	333.482
272.2000	-1.15671E+006	333.506
272.1000	-1.15269E+006	333.529
272.0000	-1.05611E+006	333.552
271.9000	-1.22514E+006	333.57
271.8000	-1.43158E+006	333.585
271.7000	-1.66851E+006	333.6
271.6000	-1.68668E+006	333.613
271.5000	-1.51198E+006	333.63
271.4000	-1.68969E+006	333.645
271.3000	-1.72012E+006	333.654
271.2000	-1.73593E+006	333.654
271.1000	-1.64317E+006	333.656
271.0000	-1.54788E+006	333.66
270.9000	-1.70776E+006	333.644
270.8000	-1.92713E+006	333.63
270.7000	-2.43684E+006	333.611
270.6000	-2.73316E+006	333.591
270.5000	-2.92759E+006	333.568
270.4000	-3.02302E+006	333.553
270.3000	-3.24387E+006	333.536
270.2000	-3.4177E+006	333.526
270.1000	-3.15735E+006	333.535
270.0000	-2.67564E+006	333.55
269.9000	-2.24888E+006	333.57
269.8000	-2.06491E+006	333.594
269.7000	-2.14466E+006	333.615
269.6000	-2.30679E+006	333.64
269.5000	-2.1175E+006	333.67
269.4000	-1.90414E+006	333.689
269.3000	-1.74909E+006	333.709
269.2000	-1.85824E+006	333.727
269.1000	-2.19838E+006	333.745
269.0000	-2.18363E+006	333.755
268.9000	-1.97522E+006	333.777
268.8000	-1.90101E+006	333.799
268.7000	-2.04531E+006	333.827
268.6000	-2.06305E+006	333.857
268.5000	-2.04006E+006	333.901
268.4000	-2.104E+006	333.947
268.3000	-1.73111E+006	333.98
268.2000	-1.54823E+006	334.019
268.1000	-1.56068E+006	334.054
268.0000	-1.22578E+006	334.106
267.9000	-1.06386E+006	334.15
267.8000	-1.01253E+006	334.195
267.7000	-1.16399E+006	334.228
267.6000	-1.65946E+006	334.259
267.5000	-2.1673E+006	334.3
267.4000	-2.26928E+006	334.338
267.3000	-2.26567E+006	334.383
267.2000	-2.12778E+006	334.417
267.1000	-2.11197E+006	334.451
267.0000	-2.04259E+006	334.488
266.9000	-2.15647E+006	334.529
266.8000	-1.94216E+006	334.572
266.7000	-1.65319E+006	334.605
266.6000	-1.60605E+006	334.65
266.5000	-1.73655E+006	334.697
266.4000	-1.79991E+006	334.755
266.3000	-1.95303E+006	334.815
266.2000	-1.99693E+006	334.878
266.1000	-1.84696E+006	334.944
266.0000	-1.70239E+006	334.999
265.9000	-1.62944E+006	335.062
265.8000	-1.54042E+006	335.128
265.7000	-1.63348E+006	335.193
265.6000	-1.43813E+006	335.262
265.5000	-956466	335.332
265.4000	-802428	335.384
265.3000	-863302	335.435
265.2000	-835212	335.502
265.1000	-828699	335.576
265.0000	-652414	335.646
264.9000	-453093	335.716
264.8000	-418903	335.76
264.7000	-559632	335.806
264.6000	-828108	335.861
264.5000	-881353	335.928
264.4000	-538355	336.006
264.3000	-401246	336.061
264.2000	-442841	336.119
264.1000	-631919	336.189
264.0000	-685635	336.274
263.9000	-991708	336.353
263.8000	-984924	336.418
263.7000	-950229	336.482
263.6000	-1.40556E+006	336.535
263.5000	-1.67627E+006	336.604
263.4000	-1.78861E+006	336.689
263.3000	-1.9232E+006	336.747
263.2000	-2.0909E+006	336.807
263.1000	-1.95345E+006	336.878
263.0000	-1.92458E+006	336.957
262.9000	-2.10089E+006	337.023
262.8000	-1.99323E+006	337.099
262.7000	-1.84985E+006	337.182
262.6000	-1.71671E+006	337.261
262.5000	-1.66462E+006	337.351
262.4000	-1.66004E+006	337.428
262.3000	-1.80413E+006	337.496
262.2000	-1.90202E+006	337.559
262.1000	-1.82721E+006	337.645
262.0000	-1.96254E+006	337.717
261.9000	-2.44544E+006	337.781
261.8000	-2.58258E+006	337.842
261.7000	-2.68946E+006	337.886
261.6000	-2.69468E+006	337.942
261.5000	-2.64135E+006	338.014
261.4000	-2.54842E+006	338.097
261.3000	-2.6051E+006	338.163
261.2000	-2.56692E+006	338.23
261.1000	-2.22027E+006	338.307
261.0000	-2.06764E+006	338.388
260.9000	-2.12065E+006	338.466
260.8000	-2.24088E+006	338.552
260.7000	-2.10243E+006	338.641
260.6000	-2.18582E+006	338.711
260.5000	-2.25535E+006	338.783
260.4000	-2.33418E+006	338.865
260.3000	-2.08354E+006	338.947
260.2000	-1.98995E+006	339.016
260.1000	-1.74845E+006	339.099
260.0000	-1.52782E+006	339.185
259.9000	-1.52777E+006	339.249
259.8000	-1.35011E+006	339.326
259.7000	-1.16414E+006	339.418
259.6000	-981351	339.5
259.5000	-1.16486E+006	339.577
259.4000	-1.23939E+006	339.664
259.3000	-1.37916E+006	339.743
259.2000	-1.43169E+006	339.828
259.1000	-1.07349E+006	339.928
259.0000	-1.13322E+006	340.008
258.9000	-1.19767E+006	340.08
258.8000	-1.105E+006	340.165
258.7000	-964813	340.246
258.6000	-1.07733E+006	340.333
258.5000	-1.30388E+006	340.419
258.4000	-1.27328E+006	340.491
258.3000	-1.50864E+006	340.563
258.2000	-1.52505E+006	340.653
258.1000	-1.39489E+006	340.746
258.0000	-1.27718E+006	340.847
257.9000	-1.38809E+006	340.952
257.8000	-1.21126E+006	341.049
257.7000	-1.02102E+006	341.144
257.6000	-1.01757E+006	341.258
257.5000	-1.10643E+006	341.361
257.4000	-1.09219E+006	341.467
257.3000	-1.03032E+006	341.575
257.2000	-1.20637E+006	341.674
257.1000	-1.12189E+006	341.764
257.0000	-1.33868E+006	341.846
256.9000	-1.45909E+006	341.933
256.8000	-1.40144E+006	342.005
256.7000	-1.28751E+006	342.077
256.6000	-1.30163E+006	342.142
256.5000	-1.5061E+006	342.201
256.4000	-1.58818E+006	342.265
256.3000	-1.63981E+006	342.328
256.2000	-1.58786E+006	342.404
256.1000	-1.69778E+006	342.482
256.0000	-1.76808E+006	342.558
255.9000	-1.87438E+006	342.645
255.8000	-1.88333E+006	342.736
255.7000	-2.12697E+006	342.83
255.6000	-2.18531E+006	342.921
255.5000	-2.28385E+006	343.008
255.4000	-2.56344E+006	343.098
255.3000	-2.53862E+006	343.185
255.2000	-2.69146E+006	343.271
255.1000	-2.72054E+006	343.348
255.0000	-2.52469E+006	343.434
254.9000	-2.01305E+006	343.51
254.8000	-1.64816E+006	343.595
254.7000	-1.58493E+006	343.697
254.6000	-1.64961E+006	343.788
254.5000	-1.60038E+006	343.882
254.4000	-1.60172E+006	343.969
254.3000	-1.36304E+006	344.062
254.2000	-1.41114E+006	344.144
254.1000	-1.6453E+006	344.246
254.0000	-1.90931E+006	344.348
253.9000	-1.91426E+006	344.441
253.8000	-1.88148E+006	344.519
253.7000	-1.72522E+006	344.601
253.6000	-1.53424E+006	344.68
253.5000	-1.40469E+006	344.77
253.4000	-1.2347E+006	344.864
253.3000	-1.20037E+006	344.951
253.2000	-1.11884E+006	345.021
253.1000	-893154	345.097
253.0000	-605435	345.183
252.9000	-10765	345.281
252.8000	133838	345.373
252.7000	36897	345.466
252.6000	-363773	345.545
252.5000	-399729	345.628
252.4000	-467196	345.713
252.3000	-659330	345.802
252.2000	-1.05233E+006	345.877
252.1000	-1.52394E+006	345.951
252.0000	-1.85948E+006	346.023
251.9000	-2.04389E+006	346.088
251.8000	-2.04631E+006	346.164
251.7000	-2.08376E+006	346.242
251.6000	-2.04052E+006	346.337
251.5000	-2.17961E+006	346.421
251.4000	-2.16427E+006	346.519
251.3000	-2.35871E+006	346.611
251.2000	-2.19097E+006	346.695
251.1000	-1.99909E+006	346.789
251.0000	-1.65658E+006	346.887
250.9000	-1.40599E+006	346.994
250.8000	-1.36474E+006	347.077
250.7000	-1.53398E+006	347.159
250.6000	-1.75244E+006	347.231
250.5000	-1.52828E+006	347.302
250.4000	-1.5173E+006	347.395
250.3000	-1.46192E+006	347.494
250.2000	-1.37044E+006	347.595
250.1000	-1.4419E+006	347.678
250.0000	-1.33427E+006	347.76
249.9000	-1.23798E+006	347.843
249.8000	-895353	347.927
249.7000	-646082	348.026
249.6000	-556417	348.125
249.5000	-602315	348.213
249.4000	-918331	348.302
249.3000	-1.04254E+006	348.397
249.2000	-1.4883E+006	348.49
249.1000	-1.71542E+006	348.594
249.0000	-1.73612E+006	348.712
248.9000	-1.9645E+006	348.822
248.8000	-2.03266E+006	348.927
248.7000	-2.10943E+006	349.026
248.6000	-2.15602E+006	349.117
248.5000	-2.30064E+006	349.201
248.4000	-2.17187E+006	349.294
248.3000	-1.91042E+006	349.383
248.2000	-1.78806E+006	349.472
248.1000	-1.77778E+006	349.554
248.0000	-1.70839E+006	349.634
247.9000	-1.84084E+006	349.714
247.8000	-1.88872E+006	349.793
247.7000	-1.62874E+006	349.878
247.6000	-1.228E+006	349.974
247.5000	-924423	350.07
247.4000	-995692	350.147
247.3000	-992046	350.212
247.2000	-1.01913E+006	350.296
247.1000	-909274	350.381
247.0000	-702464	350.465
246.9000	-317838	350.563
246.8000	-318592	350.649
246.7000	-257731	350.727
246.6000	-249153	350.809
246.5000	-128681	350.912
246.4000	115549	351.004
246.3000	271052	351.085
246.2000	246780	351.165
246.1000	-13072.6	351.246
246.0000	-251785	351.323
245.9000	-266698	351.407
245.8000	-388325	351.493
245.7000	-521108	351.582
245.6000	-575562	351.672
245.5000	-804184	351.765
245.4000	-775431	351.861
245.3000	-832858	351.952
245.2000	-888465	352.055
245.1000	-934966	352.158
245.0000	-715187	352.258
244.9000	-648279	352.348
244.8000	-695406	352.434
244.7000	-992011	352.534
244.6000	-1.16083E+006	352.646
244.5000	-1.27283E+006	352.758
244.4000	-1.43173E+006	352.854
244.3000	-1.76399E+006	352.946
244.2000	-2.21602E+006	353.042
244.1000	-2.27527E+006	353.15
244.0000	-2.2466E+006	353.264
243.9000	-1.93619E+006	353.373
243.8000	-1.78424E+006	353.47
243.7000	-1.82404E+006	353.568
243.6000	-1.66583E+006	353.675
243.5000	-1.78646E+006	353.788
243.4000	-1.9002E+006	353.905
243.3000	-2.14404E+006	354.019
243.2000	-2.02554E+006	354.137
243.1000	-2.32639E+006	354.258
243.0000	-2.34336E+006	354.378
242.9000	-2.23713E+006	354.496
242.8000	-2.27919E+006	354.61
242.7000	-2.08676E+006	354.725
242.6000	-1.80115E+006	354.836
242.5000	-1.76355E+006	354.94
242.4000	-1.78421E+006	355.056
242.3000	-1.76635E+006	355.167
242.2000	-1.93045E+006	355.276
242.1000	-1.96095E+006	355.39
242.0000	-1.85646E+006	355.508
241.9000	-1.90865E+006	355.628
241.8000	-2.15331E+006	355.743
241.7000	-2.09059E+006	355.871
241.6000	-2.00523E+006	355.988
241.5000	-2.17426E+006	356.094
241.4000	-2.13768E+006	356.204
241.3000	-2.07219E+006	356.32
241.2000	-2.23018E+006	356.434
241.1000	-2.15472E+006	356.55
241.0000	-1.98234E+006	356.675
240.9000	-1.86819E+006	356.797
240.8000	-1.67425E+006	356.921
240.7000	-1.63029E+006	357.054
240.6000	-1.47739E+006	357.186
240.5000	-1.71268E+006	357.311
240.4000	-1.90987E+006	357.444
240.3000	-2.07469E+006	357.59
240.2000	-2.31073E+006	357.731
240.1000	-2.20276E+006	357.872
240.0000	-2.26641E+006	358.012
239.9000	-2.52963E+006	358.156
239.8000	-2.40892E+006	358.302
239.7000	-2.22614E+006	358.452
239.6000	-1.83459E+006	358.605
239.5000	-1.59497E+006	358.751
239.4000	-1.44052E+006	358.898
239.3000	-1.69198E+006	359.044
239.2000	-1.83133E+006	359.197
239.1000	-1.72566E+006	359.356
239.0000	-1.86422E+006	359.509
238.9000	-2.07891E+006	359.669
238.8000	-2.16039E+006	359.824
238.7000	-2.25045E+006	359.975
238.6000	-2.44485E+006	360.117
238.5000	-2.25183E+006	360.265
238.4000	-1.94193E+006	360.41
238.3000	-1.85556E+006	360.548
238.2000	-1.9999E+006	360.689
238.1000	-2.02834E+006	360.835
238.0000	-2.22184E+006	360.983
237.9000	-2.38687E+006	361.145
237.8000	-2.5451E+006	361.308
237.7000	-2.67426E+006	361.471
237.6000	-3.07211E+006	361.639
237.5000	-3.44329E+006	361.813
237.4000	-3.51116E+006	361.988
237.3000	-3.54486E+006	362.158
237.2000	-3.52443E+006	362.332
237.1000	-3.32633E+006	362.498
237.0000	-2.89657E+006	362.667
236.9000	-2.69383E+006	362.84
236.8000	-2.46988E+006	363.009
236.7000	-2.13841E+006	363.177
236.6000	-1.64861E+006	363.339
236.5000	-1.45604E+006	363.504
236.4000	-1.53092E+006	363.663
236.3000	-1.63005E+006	363.827
236.2000	-1.97243E+006	363.995
236.1000	-1.95773E+006	364.163
236.0000	-1.91735E+006	364.332
235.9000	-1.99611E+006	364.502
235.8000	-2.20655E+006	364.678
235.7000	-2.38538E+006	364.848
235.6000	-2.40888E+006	365.017
235.5000	-2.27237E+006	365.193
235.4000	-2.4875E+006	365.363
235.3000	-2.7451E+006	365.524
235.2000	-3.19082E+006	365.684
235.1000	-3.60159E+006	365.847
235.0000	-4.11427E+006	366.006
234.9000	-4.54918E+006	366.166
234.8000	-4.72172E+006	366.34
234.7000	-5.17993E+006	366.517
234.6000	-5.34461E+006	366.691
234.5000	-5.09303E+006	366.878
234.4000	-4.99842E+006	367.075
234.3000	-4.94071E+006	367.268
234.2000	-4.78548E+006	367.465
234.1000	-4.48664E+006	367.67
234.0000	-4.58298E+006	367.863
233.9000	-4.70264E+006	368.055
233.8000	-4.49058E+006	368.254
233.7000	-4.59006E+006	368.446
233.6000	-4.85557E+006	368.637
233.5000	-4.98904E+006	368.83
233.4000	-4.86241E+006	369.021
233.3000	-4.65003E+006	369.21
233.2000	-4.422E+006	369.407
233.1000	-4.08065E+006	369.599
233.0000	-3.68969E+006	369.797
232.9000	-3.7626E+006	369.989
232.8000	-3.317E+006	370.184
232.7000	-2.92129E+006	370.379
232.6000	-2.88759E+006	370.577
232.5000	-3.01967E+006	370.784
232.4000	-3.02265E+006	370.984
232.3000	-2.97385E+006	371.193
232.2000	-2.84128E+006	371.392
232.1000	-2.69949E+006	371.596
232.0000	-3.0223E+006	371.801
231.9000	-3.29941E+006	372.01
231.8000	-3.54826E+006	372.213
231.7000	-3.75113E+006	372.419
231.6000	-3.76748E+006	372.628
231.5000	-3.80827E+006	372.829
231.4000	-4.17941E+006	373.029
231.3000	-4.00996E+006	373.236
231.2000	-3.90189E+006	373.444
231.1000	-4.08852E+006	373.642
231.0000	-4.0632E+006	373.836
230.9000	-4.06354E+006	374.031
230.8000	-4.24039E+006	374.219
230.7000	-4.43251E+006	374.421
230.6000	-4.34838E+006	374.628
230.5000	-4.65508E+006	374.835
230.4000	-4.92399E+006	375.035
230.3000	-4.63222E+006	375.25
230.2000	-4.78965E+006	375.462
230.1000	-4.9726E+006	375.683
230.0000	-4.93925E+006	375.902
229.9000	-5.06159E+006	376.109
229.8000	-5.40577E+006	376.309
229.7000	-5.8106E+006	376.501
229.6000	-6.07976E+006	376.696
229.5000	-6.19316E+006	376.881
229.4000	-6.22938E+006	377.061
229.3000	-6.12759E+006	377.238
229.2000	-6.14018E+006	377.411
229.1000	-5.98913E+006	377.593
229.0000	-5.65727E+006	377.782
228.9000	-5.16476E+006	377.974
228.8000	-4.96321E+006	378.162
228.7000	-5.00974E+006	378.365
228.6000	-5.18837E+006	378.579
228.5000	-5.22621E+006	378.8
228.4000	-4.87515E+006	379.04
228.3000	-4.68353E+006	379.278
228.2000	-5.23796E+006	379.506
228.1000	-6.27383E+006	379.738
228.0000	-6.9209E+006	379.979
227.9000	-7.05056E+006	380.219
227.8000	-7.29005E+006	380.449
227.7000	-7.587E+006	380.685
227.6000	-8.06149E+006	380.91
227.5000	-8.32691E+006	381.134
227.4000	-8.42078E+006	381.363
227.3000	-7.87135E+006	381.6
227.2000	-7.13696E+006	381.836
227.1000	-6.96907E+006	382.068
227.0000	-6.86079E+006	382.298
226.9000	-6.67218E+006	382.521
226.8000	-6.46758E+006	382.747
226.7000	-6.39159E+006	382.965
226.6000	-6.29291E+006	383.185
226.5000	-6.47239E+006	383.394
226.4000	-6.65268E+006	383.6
226.3000	-6.50817E+006	383.811
226.2000	-6.36218E+006	384.025
226.1000	-6.58545E+006	384.234
226.0000	-6.84681E+006	384.439
225.9000	-6.8231E+006	384.646
225.8000	-6.50314E+006	384.853
225.7000	-6.26776E+006	385.065
225.6000	-6.03173E+006	385.282
225.5000	-6.29278E+006	385.494
225.4000	-6.28381E+006	385.704
225.3000	-6.1683E+006	385.922
225.2000	-6.1227E+006	386.143
225.1000	-5.92107E+006	386.367
225.0000	-5.90888E+006	386.589
224.9000	-5.84904E+006	386.812
224.8000	-5.81482E+006	387.034
224.7000	-5.52885E+006	387.255
224.6000	-5.24165E+006	387.475
224.5000	-5.16527E+006	387.693
224.4000	-4.7633E+006	387.91
224.3000	-4.45912E+006	388.126
224.2000	-4.61233E+006	388.341
224.1000	-4.84725E+006	388.555
224.0000	-5.0211E+006	388.766
223.9000	-5.32623E+006	388.98
223.8000	-5.86038E+006	389.194
223.7000	-5.98249E+006	389.413
223.6000	-5.66176E+006	389.635
223.5000	-5.89074E+006	389.856
223.4000	-6.18757E+006	390.076
223.3000	-6.32588E+006	390.287
223.2000	-6.73901E+006	390.499
223.1000	-7.09985E+006	390.713
223.0000	-7.00153E+006	390.935
222.9000	-6.94734E+006	391.153
222.8000	-7.10873E+006	391.368
222.7000	-6.9946E+006	391.583
222.6000	-6.83462E+006	391.8
222.5000	-6.60835E+006	392.024
222.4000	-6.13065E+006	392.244
222.3000	-5.67619E+006	392.464
222.2000	-5.36957E+006	392.681
222.1000	-5.43019E+006	392.892
222.0000	-5.79008E+006	393.104
221.9000	-6.3031E+006	393.308
221.8000	-6.68866E+006	393.515
221.7000	-6.71933E+006	393.723
221.6000	-6.35054E+006	393.942
221.5000	-5.88184E+006	394.165
221.4000	-5.98892E+006	394.374
221.3000	-6.0489E+006	394.587
221.2000	-5.98743E+006	394.802
221.1000	-6.0883E+006	395.019
221.0000	-6.31382E+006	395.232
220.9000	-6.11197E+006	395.452
220.8000	-6.77022E+006	395.665
220.7000	-7.48452E+006	395.871
220.6000	-7.57773E+006	396.088
220.5000	-7.51748E+006	396.309
220.4000	-7.25797E+006	396.524
220.3000	-6.68433E+006	396.745
220.2000	-6.20989E+006	396.971
220.1000	-5.91853E+006	397.195
220.0000	-5.92995E+006	397.414
219.9000	-5.67097E+006	397.641
219.8000	-5.6068E+006	397.865
219.7000	-5.58274E+006	398.086
219.6000	-5.28758E+006	398.306
219.5000	-5.241E+006	398.526
219.4000	-5.26657E+006	398.749
219.3000	-5.69128E+006	398.963
219.2000	-5.67375E+006	399.186
219.1000	-5.81189E+006	399.404
219.0000	-5.95746E+006	399.623
218.9000	-6.30844E+006	399.839
218.8000	-6.91335E+006	400.06
218.7000	-7.48492E+006	400.277
218.6000	-8.04763E+006	400.493
218.5000	-7.82357E+006	400.715
218.4000	-7.8576E+006	400.935
218.3000	-7.76053E+006	401.152
218.2000	-7.39085E+006	401.375
218.1000	-6.60994E+006	401.6
218.0000	-5.78522E+006	401.83
217.9000	-5.18049E+006	402.057
217.8000	-4.37052E+006	402.28
217.7000	-4.27836E+006	402.502
217.6000	-4.33698E+006	402.72
217.5000	-4.45446E+006	402.942
217.4000	-4.43371E+006	403.159
217.3000	-4.86256E+006	403.373
217.2000	-5.52794E+006	403.587
217.1000	-5.72043E+006	403.805
217.0000	-5.84136E+006	404.024
216.9000	-5.78895E+006	404.25
216.8000	-5.96303E+006	404.471
216.7000	-5.98498E+006	404.687
216.6000	-5.81766E+006	404.914
216.5000	-5.42193E+006	405.142
216.4000	-5.2089E+006	405.361
216.3000	-5.32844E+006	405.573
216.2000	-6.04426E+006	405.785
216.1000	-6.73307E+006	405.994
216.0000	-6.87925E+006	406.205
215.9000	-6.84358E+006	406.42
215.8000	-7.57589E+006	406.628
215.7000	-8.61451E+006	406.837
215.6000	-9.66789E+006	407.05
215.5000	-9.65835E+006	407.278
215.4000	-9.73686E+006	407.503
215.3000	-9.44743E+006	407.73
215.2000	-9.0385E+006	407.958
215.1000	-8.88746E+006	408.194
215.0000	-8.79849E+006	408.43
214.9000	-8.57156E+006	408.668
214.8000	-7.85257E+006	408.906
214.7000	-6.64261E+006	409.152
214.6000	-5.74436E+006	409.396
214.5000	-5.35032E+006	409.638
214.4000	-5.65489E+006	409.877
214.3000	-6.05397E+006	410.111
214.2000	-5.76386E+006	410.349
214.1000	-5.41597E+006	410.586
214.0000	-4.76962E+006	410.826
213.9000	-4.88271E+006	411.062
213.8000	-5.30438E+006	411.296
213.7000	-5.89681E+006	411.531
213.6000	-5.43864E+006	411.777
213.5000	-4.92656E+006	412.027
213.4000	-4.4323E+006	412.279
213.3000	-4.39917E+006	412.531
213.2000	-4.79357E+006	412.779
213.1000	-5.54608E+006	413.028
213.0000	-6.235E+006	413.279
212.9000	-6.42624E+006	413.533
212.8000	-6.71865E+006	413.783
212.7000	-6.94758E+006	414.037
212.6000	-7.14521E+006	414.291
212.5000	-7.14541E+006	414.547
212.4000	-6.6862E+006	414.809
212.3000	-6.01863E+006	415.071
212.2000	-5.63937E+006	415.331
212.1000	-5.61866E+006	415.589
212.0000	-5.61403E+006	415.856
211.9000	-5.17091E+006	416.131
211.8000	-4.84717E+006	416.402
211.7000	-5.07562E+006	416.67
211.6000	-5.1608E+006	416.942
211.5000	-5.88058E+006	417.209
211.4000	-6.15473E+006	417.483
211.3000	-5.52883E+006	417.767
211.2000	-5.10051E+006	418.046
211.1000	-5.09696E+006	418.322
211.0000	-5.82768E+006	418.595
210.9000	-6.38549E+006	418.87
210.8000	-6.98936E+006	419.144
210.7000	-6.88103E+006	419.432
210.6000	-6.71383E+006	419.719
210.5000	-7.09289E+006	420.006
210.4000	-7.97909E+006	420.291
210.3000	-8.23644E+006	420.585
210.2000	-7.89291E+006	420.881
210.1000	-7.08383E+006	421.185
210.0000	-6.40503E+006	421.489
209.9000	-6.11293E+006	421.79
209.8000	-6.92515E+006	422.076
209.7000	-6.76949E+006	422.374
209.6000	-6.37826E+006	422.672
209.5000	-6.16605E+006	422.972
209.4000	-6.46764E+006	423.268
209.3000	-7.12835E+006	423.558
209.2000	-7.63183E+006	423.855
209.1000	-8.23519E+006	424.15
209.0000	-7.96062E+006	424.454
208.9000	-7.75997E+006	424.765
208.8000	-8.12618E+006	425.067
208.7000	-8.07594E+006	425.371
208.6000	-7.56296E+006	425.688
208.5000	-7.04562E+006	426.006
208.4000	-6.23116E+006	426.324
208.3000	-5.45484E+006	426.646
208.2000	-5.23256E+006	426.967
208.1000	-5.28217E+006	427.284
208.0000	-6.10021E+006	427.594
207.9000	-6.23033E+006	427.91
207.8000	-6.97013E+006	428.223
207.7000	-7.85156E+006	428.534
207.6000	-8.47588E+006	428.853
207.5000	-9.02024E+006	429.17
207.4000	-9.26671E+006	429.486
207.3000	-9.16154E+006	429.806
207.2000	-8.59295E+006	430.128
207.1000	-8.27408E+006	430.447
207.0000	-8.0542E+006	430.768
206.9000	-7.61277E+006	431.084
206.8000	-7.10616E+006	431.404
206.7000	-6.56475E+006	431.724
206.6000	-6.39574E+006	432.04
206.5000	-6.21927E+006	432.359
206.4000	-5.5215E+006	432.684
206.3000	-4.87045E+006	433.015
206.2000	-4.16083E+006	433.337
206.1000	-3.96397E+006	433.655
206.0000	-3.76093E+006	433.971
205.9000	-4.17986E+006	434.28
205.8000	-3.85564E+006	434.601
205.7000	-3.52586E+006	434.921
205.6000	-3.96087E+006	435.237
205.5000	-4.60721E+006	435.552
205.4000	-5.54176E+006	435.868
205.3000	-5.94387E+006	436.192
205.2000	-6.12376E+006	436.521
205.1000	-6.52758E+006	436.853
205.0000	-7.37955E+006	437.176
204.9000	-7.93143E+006	437.506
204.8000	-7.40803E+006	437.844
204.7000	-7.22729E+006	438.183
204.6000	-6.89965E+006	438.521
204.5000	-6.79315E+006	438.86
204.4000	-7.24276E+006	439.195
204.3000	-6.9044E+006	439.536
204.2000	-6.86832E+006	439.882
204.1000	-6.47475E+006	440.231
204.0000	-6.90733E+006	440.576
203.9000	-7.33773E+006	440.919
203.8000	-6.98E+006	441.271
203.7000	-6.28059E+006	441.63
203.6000	-5.37489E+006	441.994
203.5000	-4.43554E+006	442.358
203.4000	-3.86763E+006	442.719
203.3000	-4.2999E+006	443.077
203.2000	-4.551E+006	443.437
203.1000	-4.09618E+006	443.809
203.0000	-3.94425E+006	444.183
202.9000	-3.65107E+006	444.56
202.8000	-3.46339E+006	444.934
202.7000	-3.29737E+006	445.315
202.6000	-3.25221E+006	445.694
202.5000	-2.83994E+006	446.075
202.4000	-2.42403E+006	446.456
202.3000	-2.23183E+006	446.84
202.2000	-1.97481E+006	447.222
202.1000	-1.963E+006	447.603
202.0000	-2.25924E+006	447.987
201.9000	-2.1127E+006	448.38
201.8000	-2.4037E+006	448.776
201.7000	-1.52135E+006	449.188
201.6000	-652975	449.605
201.5000	569724	450.027
201.4000	1.12288E+006	450.449
201.3000	1.90502E+006	450.88
201.2000	1.68046E+006	451.304
201.1000	1.18437E+006	451.732
201.0000	1.19719E+006	452.166
200.9000	297561	452.596
200.8000	-1.00311E+006	453.031
200.7000	-2.33484E+006	453.475
200.6000	-2.83011E+006	453.935
200.5000	-2.58166E+006	454.412
200.4000	-1.02758E+006	454.909
200.3000	49097.1	455.409
200.2000	952831	455.914
200.1000	2.17409E+006	456.425
200.0000	3.05603E+006	456.934
199.9000	3.83073E+006	457.442
199.8000	3.66674E+006	457.933
199.7000	3.42261E+006	458.417
199.6000	2.1784E+006	458.892
199.5000	266619	459.364
199.4000	-790688	459.848
199.3000	-1.26982E+006	460.339
199.2000	-1.28935E+006	460.844
199.1000	-419883	461.359
199.0000	-218875	461.886
198.9000	-269528	462.429
198.8000	695279	462.996
198.7000	2.8827E+006	463.588
198.6000	4.41775E+006	464.19
198.5000	5.33349E+006	464.804
198.4000	5.72029E+006	465.426
198.3000	5.86816E+006	466.067
198.2000	5.72232E+006	466.727
198.1000	6.22088E+006	467.417
198.0000	6.19814E+006	468.129
197.9000	4.90569E+006	468.847
197.8000	4.02687E+006	469.585
197.7000	3.24186E+006	470.337
197.6000	3.71889E+006	471.112
197.5000	3.80058E+006	471.886
197.4000	4.41778E+006	472.652
197.3000	5.4689E+006	473.404
197.2000	6.3772E+006	474.12
197.1000	7.25805E+006	474.811
197.0000	8.45427E+006	475.489
196.9000	9.15166E+006	476.156
196.8000	8.65625E+006	476.812
196.7000	8.50232E+006	477.485
196.6000	8.47184E+006	478.185
196.5000	8.29988E+006	478.92
196.4000	8.91281E+006	479.716
196.3000	8.47992E+006	480.558
196.2000	8.95623E+006	481.464
196.1000	9.33268E+006	482.428
196.0000	1.10945E+007	483.466
195.9000	1.27841E+007	484.588
195.8000	1.38358E+007	485.806
195.7000	1.32196E+007	487.117
195.6000	1.22722E+007	488.535
195.5000	1.21894E+007	490.066
195.4000	1.29329E+007	491.684
195.3000	1.33528E+007	493.348
195.2000	1.37636E+007	495.037
195.1000	1.31646E+007	496.691
195.0000	1.32074E+007	498.262
194.9000	1.42032E+007	499.698
194.8000	1.51764E+007	500.972
194.7000	1.50039E+007	502.072
194.6000	1.42361E+007	503.047
194.5000	1.384E+007	503.935
194.4000	1.37017E+007	504.777
194.3000	1.43142E+007	505.607
194.2000	1.3936E+007	506.489
194.1000	1.33332E+007	507.492
194.0000	1.45355E+007	508.684
193.9000	1.57106E+007	510.094
193.8000	1.57049E+007	511.72
193.7000	1.50771E+007	513.611
193.6000	1.57345E+007	515.791
193.5000	1.5197E+007	518.298
193.4000	1.50163E+007	521.165
193.3000	1.48624E+007	524.377
193.2000	1.53017E+007	527.896
193.1000	1.57335E+007	531.63
193.0000	1.69144E+007	535.504
192.9000	1.75296E+007	539.369
192.8000	1.79873E+007	543.103
192.7000	1.7673E+007	546.517
192.6000	1.6849E+007	549.435
192.5000	1.61537E+007	551.786
192.4000	1.66351E+007	553.635
192.3000	1.548E+007	555.038
192.2000	1.48884E+007	556.101
192.1000	1.57027E+007	556.939
192.0000	1.59606E+007	557.697
191.9000	1.64632E+007	558.575
191.8000	1.80269E+007	559.816
191.7000	1.8858E+007	561.569
191.6000	1.67968E+007	563.862
191.5000	1.38047E+007	566.698
191.4000	1.0628E+007	570.109
191.3000	9.03895E+006	574.192
191.2000	9.18131E+006	578.956
191.1000	8.04563E+006	584.347
191.0000	6.53697E+006	590.247
190.9000	5.13933E+006	596.52
190.8000	5.38874E+006	603.04
190.7000	1.00383E+007	609.67
190.6000	1.65403E+007	616.176
190.5000	2.0502E+007	622.232
190.4000	2.27854E+007	627.576
190.3000	2.22597E+007	632.05
190.2000	2.2224E+007	635.722
190.1000	2.22615E+007	638.718
190.0000	2.5189E+007	641.18

##### Extended Information
[Comments]
Sample name	ACE2_doxer_0.6uM
Comment
User
Division
Company	CSIR-IMTECH

[Detailed Information]
Creation date	4/8/2024 7:02 PM

Data array type	Linear data array * 2
Horizontal axis	Wavelength [nm]
Vertical axis(1)	Mol. Ellip.
Vertical axis(2)	HT [V]
Start	350 nm
End	190 nm
Data interval	0.1 nm
Data points	1601    

[Measurement Information]
Instrument Name	JASCO CD
Model Name	J-815
Serial No.	B063061168

Accessory	PTC-423S
Accessory S/N	C013945-01
  Temperature	37.96 C
  Control Sonsor	Cell
  Monitor Sensor	Cell
  Start Mode	Start immediately
  Cell Length	10 mm

Measurement date	4/8/2024 7:01 PM

Photometric Mode	CD, HT
Measure Range	350 - 190 nm
Data pitch	0.1 nm
Sensitivity	Standard
D.I.T.	1 sec
Bandwidth	1.00 nm
Start Mode	Immediately
Scanning Speed	50 nm/min
Baseline Correction	None
Shutter Control	Auto
CD Detector	PMT
PMT Voltage	Auto
Accumulations	3
Concentration	0.27 umol/L

