TITLE,ACE2_D2_0.6uM
DATA TYPE,
ORIGIN,JASCO
OWNER,
DATE,24/02/26
TIME,16:53:40
SPECTROMETER/DATA SYSTEM,
LOCALE,1033
RESOLUTION,
DELTAX,-0.1
XUNITS,NANOMETERS
YUNITS,Mol. Ellip.
Y2UNITS,HT [V]
FIRSTX,  350.0000
LASTX,  190.0000
NPOINTS,    1601
FIRSTY,3333333.25000
MAXY,3887640.25000
MINY,-26263878.00000
XYDATA
350.0000,3.33333E+006,468.99
349.9000,3.68215E+006,468.404
349.8000,3.58011E+006,467.532
349.7000,3.88764E+006,466.659
349.6000,3.88574E+006,466.022
349.5000,3.79911E+006,465.458
349.4000,3.35179E+006,464.579
349.3000,3.1728E+006,463.955
349.2000,3.19887E+006,463.427
349.1000,3.39019E+006,462.625
349.0000,3.63767E+006,462.037
348.9000,3.42931E+006,461.502
348.8000,3.26541E+006,460.656
348.7000,2.77738E+006,459.791
348.6000,2.97253E+006,459.178
348.5000,3.57578E+006,458.658
348.4000,3.69773E+006,457.815
348.3000,3.42511E+006,457.173
348.2000,2.71695E+006,456.589
348.1000,2.74611E+006,455.739
348.0000,2.30326E+006,455.109
347.9000,2.38272E+006,454.574
347.8000,2.7473E+006,453.774
347.7000,2.30221E+006,452.953
347.6000,1.84175E+006,452.364
347.5000,1.44936E+006,451.867
347.4000,1.31755E+006,451.076
347.3000,996010,450.48
347.2000,1.00512E+006,449.971
347.1000,1.05216E+006,449.21
347.0000,941854,448.642
346.9000,898459,448.145
346.8000,950796,447.381
346.7000,1.17557E+006,446.605
346.6000,1.60086E+006,446.037
346.5000,1.76146E+006,445.313
346.4000,2.00647E+006,444.579
346.3000,2.20258E+006,444.021
346.2000,2.39677E+006,443.284
346.1000,2.56166E+006,442.536
346.0000,2.96511E+006,442
345.9000,3.14765E+006,441.537
345.8000,3.12132E+006,440.804
345.7000,2.85227E+006,440.252
345.6000,2.67382E+006,439.777
345.5000,2.36862E+006,439.087
345.4000,2.16085E+006,438.591
345.3000,1.74421E+006,438.164
345.2000,1.71231E+006,437.481
345.1000,1.61559E+006,436.782
345.0000,1.62377E+006,436.273
344.9000,1.66455E+006,435.607
344.8000,1.51087E+006,434.919
344.7000,1.61752E+006,434.383
344.6000,1.88697E+006,433.715
344.5000,2.03399E+006,433.039
344.4000,2.05316E+006,432.544
344.3000,2.04665E+006,431.89
344.2000,2.07232E+006,431.225
344.1000,2.01987E+006,430.736
344.0000,2.39074E+006,430.114
343.9000,2.7832E+006,429.484
343.8000,2.93162E+006,429.006
343.7000,2.93225E+006,428.579
343.6000,2.82801E+006,427.941
343.5000,2.82233E+006,427.482
343.4000,2.53743E+006,427.09
343.3000,2.29929E+006,426.457
343.2000,1.97483E+006,425.988
343.1000,1.48992E+006,425.578
343.0000,1.25577E+006,424.992
342.9000,1.23857E+006,424.4
342.8000,1.32346E+006,423.958
342.7000,1.47366E+006,423.355
342.6000,1.62907E+006,422.746
342.5000,1.74195E+006,422.304
342.4000,1.89163E+006,421.758
342.3000,2.23465E+006,421.214
342.2000,2.28856E+006,420.792
342.1000,2.0806E+006,420.241
342.0000,2.03681E+006,419.688
341.9000,1.91267E+006,419.299
341.8000,1.60468E+006,418.775
341.7000,1.6118E+006,418.246
341.6000,1.50612E+006,417.846
341.5000,1.37359E+006,417.303
341.4000,1.31253E+006,416.749
341.3000,1.42281E+006,416.334
341.2000,1.56076E+006,415.79
341.1000,1.77701E+006,415.233
341.0000,2.05098E+006,414.821
340.9000,1.97855E+006,414.276
340.8000,2.04722E+006,413.727
340.7000,2.13309E+006,413.319
340.6000,2.22294E+006,412.819
340.5000,2.15173E+006,412.31
340.4000,2.15181E+006,411.935
340.3000,1.93613E+006,411.426
340.2000,1.53339E+006,410.907
340.1000,1.31044E+006,410.53
340.0000,1.28884E+006,410.057
339.9000,1.33038E+006,409.577
339.8000,1.24173E+006,409.208
339.7000,1.25891E+006,408.73
339.6000,1.09897E+006,408.235
339.5000,898389,407.876
339.4000,975782,407.414
339.3000,1.16361E+006,406.938
339.2000,1.11771E+006,406.415
339.1000,993855,405.946
339.0000,869632,405.47
338.9000,750529,404.95
338.8000,806608,404.488
338.7000,843413,404.021
338.6000,796138,403.514
338.5000,801063,403.067
338.4000,665532,402.737
338.3000,686357,402.32
338.2000,681412,401.894
338.1000,595534,401.587
338.0000,408530,401.172
337.9000,325331,400.749
337.8000,301977,400.445
337.7000,79500.6,400.038
337.6000,24665.2,399.624
337.5000,-120590,399.31
337.4000,-256045,398.895
337.3000,-94607,398.473
337.2000,309985,398.018
337.1000,543759,397.615
337.0000,723136,397.205
336.9000,834777,396.774
336.8000,871440,396.396
336.7000,974517,396.014
336.6000,1.06337E+006,395.588
336.5000,1.21387E+006,395.21
336.4000,1.03918E+006,394.935
336.3000,899554,394.566
336.2000,755136,394.187
336.1000,732224,393.904
336.0000,700254,393.533
335.9000,780386,393.149
335.8000,820693,392.729
335.7000,704714,392.355
335.6000,679657,391.978
335.5000,680708,391.579
335.4000,926998,391.235
335.3000,1.04665E+006,390.888
335.2000,1.19647E+006,390.512
335.1000,1.17389E+006,390.175
335.0000,1.22124E+006,389.947
334.9000,1.26192E+006,389.626
334.8000,1.28559E+006,389.292
334.7000,960468,388.915
334.6000,739600,388.58
334.5000,408740,388.233
334.4000,291444,387.85
334.3000,139929,387.506
334.2000,-88928.1,387.154
334.1000,-65601.2,386.781
334.0000,-188893,386.45
333.9000,-207100,386.219
333.8000,-109719,385.915
333.7000,-26601.2,385.601
333.6000,39214.7,385.245
333.5000,106969,384.937
333.4000,298758,384.623
333.3000,323234,384.278
333.2000,351966,383.976
333.1000,463570,383.665
333.0000,650397,383.338
332.9000,402548,383.036
332.8000,245341,382.698
332.7000,177609,382.403
332.6000,215357,382.104
332.5000,151607,381.781
332.4000,203395,381.502
332.3000,206828,381.222
332.2000,71568.7,380.899
332.1000,112547,380.607
332.0000,240228,380.289
331.9000,225425,380.015
331.8000,135137,379.735
331.7000,33275.8,379.429
331.6000,-108216,379.149
331.5000,-213872,378.741
331.4000,-324278,378.413
331.3000,-359334,378.127
331.2000,-326332,377.829
331.1000,-161447,377.572
331.0000,-96562.1,377.308
330.9000,-117019,377.018
330.8000,3600.96,376.759
330.7000,43129.4,376.479
330.6000,175887,376.239
330.5000,325533,375.997
330.4000,286359,375.715
330.3000,38423.1,375.459
330.2000,-106402,375.106
330.1000,-231712,374.823
330.0000,-250481,374.575
329.9000,-259698,374.285
329.8000,-391214,374.024
329.7000,-619309,373.678
329.6000,-781066,373.411
329.5000,-614691,373.187
329.4000,-612050,372.904
329.3000,-600344,372.648
329.2000,-600122,372.307
329.1000,-685946,372.047
329.0000,-761756,371.829
328.9000,-761571,371.57
328.8000,-726556,371.334
328.7000,-711260,371.045
328.6000,-676747,370.845
328.5000,-489344,370.69
328.4000,-381943,370.442
328.3000,-355257,370.212
328.2000,-380038,369.965
328.1000,-437147,369.793
328.0000,-465754,369.654
327.9000,-477768,369.368
327.8000,-646905,369.082
327.7000,-919757,368.803
327.6000,-1.1324E+006,368.64
327.5000,-1.12725E+006,368.536
327.4000,-1.08814E+006,368.248
327.3000,-1.08195E+006,367.945
327.2000,-1.08462E+006,367.634
327.1000,-1.24651E+006,367.454
327.0000,-1.34919E+006,367.342
326.9000,-1.26271E+006,367.073
326.8000,-1.2217E+006,366.776
326.7000,-1.22742E+006,366.479
326.6000,-1.25791E+006,366.325
326.5000,-1.20511E+006,366.246
326.4000,-1.11516E+006,365.983
326.3000,-908039,365.708
326.2000,-665962,365.454
326.1000,-470866,365.314
326.0000,-326060,365.028
325.9000,-322100,364.735
325.8000,-339724,364.435
325.7000,-375194,364.167
325.6000,-478002,364.034
325.5000,-507389,363.766
325.4000,-653011,363.473
325.3000,-834214,363.162
325.2000,-959508,363.046
325.1000,-1.13079E+006,363.006
325.0000,-1.15939E+006,362.776
324.9000,-1.15918E+006,362.515
324.8000,-1.16281E+006,362.262
324.7000,-1.14084E+006,362.165
324.6000,-1.22962E+006,362.141
324.5000,-1.38332E+006,361.898
324.4000,-1.54041E+006,361.612
324.3000,-1.50533E+006,361.333
324.2000,-1.54107E+006,361.186
324.1000,-1.42092E+006,360.911
324.0000,-1.24676E+006,360.616
323.9000,-1.18892E+006,360.292
323.8000,-1.12609E+006,359.993
323.7000,-1.0651E+006,359.846
323.6000,-1.0407E+006,359.603
323.5000,-990233,359.333
323.4000,-914847,359.083
323.3000,-937011,358.982
323.2000,-1.0965E+006,358.945
323.1000,-1.34928E+006,358.752
323.0000,-1.51356E+006,358.533
322.9000,-1.59689E+006,358.285
322.8000,-1.6495E+006,358.155
322.7000,-1.72122E+006,357.909
322.6000,-1.86323E+006,357.624
322.5000,-1.99675E+006,357.322
322.4000,-2.04585E+006,357.02
322.3000,-1.96392E+006,356.822
322.2000,-1.8125E+006,356.488
322.1000,-1.78095E+006,356.151
322.0000,-1.61345E+006,355.839
321.9000,-1.56517E+006,355.655
321.8000,-1.64245E+006,355.415
321.7000,-1.6609E+006,355.175
321.6000,-1.82759E+006,354.93
321.5000,-2.06421E+006,354.699
321.4000,-2.30261E+006,354.617
321.3000,-2.5394E+006,354.503
321.2000,-2.84295E+006,354.377
321.1000,-3.04792E+006,354.217
321.0000,-3.07386E+006,354.158
320.9000,-3.11415E+006,354.027
320.8000,-3.09349E+006,353.888
320.7000,-2.8985E+006,353.733
320.6000,-2.65534E+006,353.57
320.5000,-2.42849E+006,353.484
320.4000,-2.21636E+006,353.288
320.3000,-1.97525E+006,353.105
320.2000,-1.91581E+006,352.914
320.1000,-1.84358E+006,352.809
320.0000,-1.75926E+006,352.633
319.9000,-1.73648E+006,352.465
319.8000,-1.78338E+006,352.271
319.7000,-1.91576E+006,352.068
319.6000,-2.00868E+006,351.87
319.5000,-2.21261E+006,351.717
319.4000,-2.3163E+006,351.569
319.3000,-2.43966E+006,351.376
319.2000,-2.48997E+006,351.26
319.1000,-2.58935E+006,351.073
319.0000,-2.66005E+006,350.901
318.9000,-2.69739E+006,350.699
318.8000,-2.68581E+006,350.565
318.7000,-2.66812E+006,350.348
318.6000,-2.56863E+006,350.125
318.5000,-2.6917E+006,349.917
318.4000,-2.81366E+006,349.715
318.3000,-2.85185E+006,349.522
318.2000,-2.88621E+006,349.367
318.1000,-2.86283E+006,349.237
318.0000,-2.76827E+006,349.068
317.9000,-2.79134E+006,348.976
317.8000,-2.85894E+006,348.862
317.7000,-2.809E+006,348.758
317.6000,-2.68976E+006,348.591
317.5000,-2.71427E+006,348.469
317.4000,-2.74547E+006,348.296
317.3000,-2.70592E+006,348.119
317.2000,-2.76681E+006,347.921
317.1000,-2.7784E+006,347.737
317.0000,-2.81109E+006,347.504
316.9000,-2.83062E+006,347.286
316.8000,-3.04745E+006,347.079
316.7000,-3.20542E+006,346.889
316.6000,-3.28206E+006,346.718
316.5000,-3.3003E+006,346.571
316.4000,-3.30656E+006,346.397
316.3000,-3.34046E+006,346.232
316.2000,-3.40159E+006,346.091
316.1000,-3.47847E+006,345.986
316.0000,-3.429E+006,345.906
315.9000,-3.35855E+006,345.767
315.8000,-3.32832E+006,345.652
315.7000,-3.31719E+006,345.489
315.6000,-3.41988E+006,345.372
315.5000,-3.59888E+006,345.206
315.4000,-3.71815E+006,345.074
315.3000,-3.75524E+006,344.859
315.2000,-3.7256E+006,344.637
315.1000,-3.68452E+006,344.44
315.0000,-3.73451E+006,344.263
314.9000,-3.81038E+006,344.104
314.8000,-3.82181E+006,343.961
314.7000,-3.80096E+006,343.809
314.6000,-3.63539E+006,343.682
314.5000,-3.39634E+006,343.578
314.4000,-3.30984E+006,343.505
314.3000,-3.42578E+006,343.377
314.2000,-3.48177E+006,343.256
314.1000,-3.40771E+006,343.101
314.0000,-3.38956E+006,342.949
313.9000,-3.24604E+006,342.782
313.8000,-3.3148E+006,342.624
313.7000,-3.47734E+006,342.409
313.6000,-3.61737E+006,342.202
313.5000,-3.59328E+006,342.009
313.4000,-3.50619E+006,341.836
313.3000,-3.46312E+006,341.683
313.2000,-3.62749E+006,341.54
313.1000,-3.83094E+006,341.381
313.0000,-3.91946E+006,341.241
312.9000,-3.94828E+006,341.124
312.8000,-3.88326E+006,341.035
312.7000,-3.86078E+006,340.905
312.6000,-3.86599E+006,340.782
312.5000,-3.84429E+006,340.633
312.4000,-3.84151E+006,340.481
312.3000,-3.89635E+006,340.297
312.2000,-3.94826E+006,340.126
312.1000,-4.02306E+006,339.908
312.0000,-4.12561E+006,339.698
311.9000,-4.25039E+006,339.499
311.8000,-4.34425E+006,339.305
311.7000,-4.35542E+006,339.142
311.6000,-4.39105E+006,338.934
311.5000,-4.30245E+006,338.785
311.4000,-4.28883E+006,338.642
311.3000,-4.31435E+006,338.552
311.2000,-4.23689E+006,338.433
311.1000,-4.1813E+006,338.344
311.0000,-4.10522E+006,338.252
310.9000,-4.03048E+006,338.167
310.8000,-4.03382E+006,338.063
310.7000,-3.96939E+006,337.98
310.6000,-3.95843E+006,337.861
310.5000,-3.95841E+006,337.748
310.4000,-4.04049E+006,337.64
310.3000,-3.99851E+006,337.552
310.2000,-4.08715E+006,337.471
310.1000,-4.27536E+006,337.395
310.0000,-4.3324E+006,337.308
309.9000,-4.50336E+006,337.238
309.8000,-4.642E+006,337.18
309.7000,-4.68259E+006,337.07
309.6000,-4.68338E+006,336.987
309.5000,-4.65727E+006,336.89
309.4000,-4.70007E+006,336.799
309.3000,-4.63454E+006,336.643
309.2000,-4.69726E+006,336.523
309.1000,-4.70699E+006,336.377
309.0000,-4.67682E+006,336.244
308.9000,-4.62024E+006,336.119
308.8000,-4.62075E+006,336.01
308.7000,-4.78613E+006,335.917
308.6000,-4.7936E+006,335.835
308.5000,-4.78535E+006,335.734
308.4000,-4.82711E+006,335.646
308.3000,-4.83716E+006,335.59
308.2000,-4.84929E+006,335.472
308.1000,-4.86898E+006,335.386
308.0000,-4.90773E+006,335.309
307.9000,-4.88243E+006,335.235
307.8000,-4.98228E+006,335.073
307.7000,-5.06335E+006,334.955
307.6000,-5.09652E+006,334.839
307.5000,-4.99907E+006,334.669
307.4000,-4.93535E+006,334.551
307.3000,-4.92073E+006,334.452
307.2000,-4.89274E+006,334.363
307.1000,-4.80915E+006,334.21
307.0000,-4.82956E+006,334.112
306.9000,-4.83836E+006,334.039
306.8000,-4.79036E+006,333.987
306.7000,-4.92588E+006,333.913
306.6000,-5.11345E+006,333.834
306.5000,-5.14387E+006,333.762
306.4000,-5.22634E+006,333.627
306.3000,-5.34405E+006,333.535
306.2000,-5.37237E+006,333.436
306.1000,-5.36002E+006,333.342
306.0000,-5.45997E+006,333.199
305.9000,-5.33666E+006,333.107
305.8000,-5.1585E+006,333.041
305.7000,-5.12832E+006,332.917
305.6000,-5.05905E+006,332.835
305.5000,-5.01571E+006,332.77
305.4000,-5.03838E+006,332.728
305.3000,-5.05031E+006,332.627
305.2000,-4.96763E+006,332.559
305.1000,-4.96781E+006,332.491
305.0000,-5.00501E+006,332.367
304.9000,-4.95301E+006,332.291
304.8000,-4.94254E+006,332.211
304.7000,-5.00623E+006,332.135
304.6000,-4.95423E+006,332.011
304.5000,-4.95443E+006,331.921
304.4000,-4.99045E+006,331.853
304.3000,-5.1964E+006,331.732
304.2000,-5.38371E+006,331.66
304.1000,-5.51295E+006,331.609
304.0000,-5.74883E+006,331.571
303.9000,-5.83922E+006,331.477
303.8000,-5.7973E+006,331.404
303.7000,-5.74236E+006,331.36
303.6000,-5.73961E+006,331.259
303.5000,-5.70867E+006,331.198
303.4000,-5.56763E+006,331.134
303.3000,-5.63168E+006,331.027
303.2000,-5.63026E+006,330.919
303.1000,-5.62264E+006,330.839
303.0000,-5.73031E+006,330.79
302.9000,-5.9233E+006,330.686
302.8000,-6.00612E+006,330.616
302.7000,-6.00392E+006,330.565
302.6000,-5.99649E+006,330.477
302.5000,-5.97354E+006,330.428
302.4000,-6.01518E+006,330.379
302.3000,-6.07624E+006,330.29
302.2000,-6.09249E+006,330.206
302.1000,-6.05295E+006,330.128
302.0000,-6.067E+006,330.074
301.9000,-6.09392E+006,329.987
301.8000,-6.14224E+006,329.918
301.7000,-6.29592E+006,329.863
301.6000,-6.3053E+006,329.776
301.5000,-6.3135E+006,329.728
301.4000,-6.28301E+006,329.681
301.3000,-6.2715E+006,329.61
301.2000,-6.25894E+006,329.547
301.1000,-6.3652E+006,329.489
301.0000,-6.34009E+006,329.461
300.9000,-6.20764E+006,329.398
300.8000,-6.09184E+006,329.329
300.7000,-6.08279E+006,329.274
300.6000,-6.08567E+006,329.199
300.5000,-6.115E+006,329.139
300.4000,-6.16642E+006,329.094
300.3000,-6.05903E+006,329.022
300.2000,-6.04417E+006,328.951
300.1000,-6.19274E+006,328.895
300.0000,-6.19259E+006,328.836
299.9000,-6.16469E+006,328.787
299.8000,-6.22406E+006,328.74
299.7000,-6.3313E+006,328.678
299.6000,-6.41975E+006,328.622
299.5000,-6.51513E+006,328.566
299.4000,-6.61365E+006,328.524
299.3000,-6.58262E+006,328.46
299.2000,-6.6803E+006,328.409
299.1000,-6.79518E+006,328.376
299.0000,-6.80344E+006,328.316
298.9000,-6.74346E+006,328.272
298.8000,-6.60982E+006,328.245
298.7000,-6.54932E+006,328.194
298.6000,-6.56069E+006,328.15
298.5000,-6.61622E+006,328.108
298.4000,-6.63792E+006,328.053
298.3000,-6.62305E+006,328.002
298.2000,-6.56558E+006,327.954
298.1000,-6.56856E+006,327.901
298.0000,-6.69056E+006,327.849
297.9000,-6.7976E+006,327.806
297.8000,-6.83438E+006,327.746
297.7000,-6.87485E+006,327.697
297.6000,-6.84733E+006,327.665
297.5000,-6.83643E+006,327.61
297.4000,-7.00813E+006,327.567
297.3000,-7.17644E+006,327.535
297.2000,-7.19807E+006,327.48
297.1000,-7.17107E+006,327.436
297.0000,-7.193E+006,327.395
296.9000,-7.13313E+006,327.338
296.8000,-7.16529E+006,327.292
296.7000,-7.19333E+006,327.256
296.6000,-7.15746E+006,327.23
296.5000,-7.05897E+006,327.186
296.4000,-7.03049E+006,327.155
296.3000,-7.03797E+006,327.135
296.2000,-7.051E+006,327.1
296.1000,-7.02638E+006,327.074
296.0000,-6.98016E+006,327.056
295.9000,-7.00531E+006,327.02
295.8000,-7.06283E+006,326.965
295.7000,-7.06589E+006,326.936
295.6000,-7.10189E+006,326.902
295.5000,-7.14083E+006,326.847
295.4000,-7.10264E+006,326.787
295.3000,-7.07545E+006,326.753
295.2000,-7.18689E+006,326.704
295.1000,-7.18661E+006,326.646
295.0000,-7.259E+006,326.616
294.9000,-7.2714E+006,326.572
294.8000,-7.23842E+006,326.517
294.7000,-7.20197E+006,326.488
294.6000,-7.17123E+006,326.467
294.5000,-7.22544E+006,326.428
294.4000,-7.28356E+006,326.399
294.3000,-7.33278E+006,326.378
294.2000,-7.37094E+006,326.334
294.1000,-7.38771E+006,326.305
294.0000,-7.4571E+006,326.288
293.9000,-7.45793E+006,326.249
293.8000,-7.4876E+006,326.222
293.7000,-7.46788E+006,326.203
293.6000,-7.44266E+006,326.16
293.5000,-7.26245E+006,326.113
293.4000,-7.23434E+006,326.096
293.3000,-7.24873E+006,326.058
293.2000,-7.29135E+006,326.009
293.1000,-7.35144E+006,325.989
293.0000,-7.47218E+006,325.949
292.9000,-7.57597E+006,325.907
292.8000,-7.59447E+006,325.895
292.7000,-7.67919E+006,325.876
292.6000,-7.73793E+006,325.839
292.5000,-7.72309E+006,325.792
292.4000,-7.7346E+006,325.769
292.3000,-7.77045E+006,325.73
292.2000,-7.74619E+006,325.686
292.1000,-7.66425E+006,325.663
292.0000,-7.6421E+006,325.624
291.9000,-7.75675E+006,325.574
291.8000,-7.83571E+006,325.537
291.7000,-7.82101E+006,325.526
291.6000,-7.76625E+006,325.495
291.5000,-7.73098E+006,325.456
291.4000,-7.69976E+006,325.44
291.3000,-7.77766E+006,325.396
291.2000,-7.93101E+006,325.336
291.1000,-7.97553E+006,325.272
291.0000,-8.0451E+006,325.221
290.9000,-8.04977E+006,325.149
290.8000,-8.02806E+006,325.06
290.7000,-8.01401E+006,324.966
290.6000,-8.02254E+006,324.862
290.5000,-8.04127E+006,324.737
290.4000,-7.99602E+006,324.613
290.3000,-7.93908E+006,324.513
290.2000,-7.86331E+006,324.391
290.1000,-7.82605E+006,324.264
290.0000,-7.88981E+006,324.153
289.9000,-7.99333E+006,324.083
289.8000,-8.02313E+006,324.029
289.7000,-8.06769E+006,323.996
289.6000,-8.11821E+006,324.008
289.5000,-8.16938E+006,324.053
289.4000,-8.17166E+006,324.117
289.3000,-8.2263E+006,324.206
289.2000,-8.35502E+006,324.307
289.1000,-8.42789E+006,324.42
289.0000,-8.51632E+006,324.523
288.9000,-8.59924E+006,324.617
288.8000,-8.66441E+006,324.7
288.7000,-8.70583E+006,324.764
288.6000,-8.85665E+006,324.797
288.5000,-8.89902E+006,324.823
288.4000,-8.78562E+006,324.833
288.3000,-8.77737E+006,324.833
288.2000,-8.70336E+006,324.826
288.1000,-8.58835E+006,324.81
288.0000,-8.44105E+006,324.791
287.9000,-8.4657E+006,324.75
287.8000,-8.44576E+006,324.733
287.7000,-8.42232E+006,324.718
287.6000,-8.48038E+006,324.7
287.5000,-8.51858E+006,324.679
287.4000,-8.5002E+006,324.671
287.3000,-8.63645E+006,324.654
287.2000,-8.74596E+006,324.641
287.1000,-8.73385E+006,324.629
287.0000,-8.66969E+006,324.607
286.9000,-8.68172E+006,324.595
286.8000,-8.75087E+006,324.583
286.7000,-8.75891E+006,324.573
286.6000,-8.74222E+006,324.543
286.5000,-8.6562E+006,324.535
286.4000,-8.5915E+006,324.536
286.3000,-8.58275E+006,324.532
286.2000,-8.6173E+006,324.532
286.1000,-8.7086E+006,324.515
286.0000,-8.72211E+006,324.516
285.9000,-8.81337E+006,324.514
285.8000,-8.86684E+006,324.513
285.7000,-8.90602E+006,324.504
285.6000,-8.92367E+006,324.483
285.5000,-8.92285E+006,324.486
285.4000,-8.91625E+006,324.498
285.3000,-8.82465E+006,324.507
285.2000,-8.70344E+006,324.503
285.1000,-8.62083E+006,324.49
285.0000,-8.56225E+006,324.498
284.9000,-8.52518E+006,324.502
284.8000,-8.56504E+006,324.506
284.7000,-8.59004E+006,324.5
284.6000,-8.57201E+006,324.482
284.5000,-8.66224E+006,324.483
284.4000,-8.84858E+006,324.491
284.3000,-8.9776E+006,324.499
284.2000,-9.07651E+006,324.494
284.1000,-9.24225E+006,324.483
284.0000,-9.27928E+006,324.472
283.9000,-9.35915E+006,324.479
283.8000,-9.44872E+006,324.489
283.7000,-9.43302E+006,324.492
283.6000,-9.30118E+006,324.483
283.5000,-9.21108E+006,324.481
283.4000,-9.1546E+006,324.476
283.3000,-9.11932E+006,324.495
283.2000,-9.08183E+006,324.52
283.1000,-9.07601E+006,324.524
283.0000,-9.15496E+006,324.517
282.9000,-9.28923E+006,324.505
282.8000,-9.36422E+006,324.503
282.7000,-9.39365E+006,324.519
282.6000,-9.43952E+006,324.533
282.5000,-9.45943E+006,324.541
282.4000,-9.48743E+006,324.537
282.3000,-9.59579E+006,324.538
282.2000,-9.67472E+006,324.542
282.1000,-9.69107E+006,324.569
282.0000,-9.72896E+006,324.592
281.9000,-9.80683E+006,324.598
281.8000,-9.87434E+006,324.604
281.7000,-9.96037E+006,324.604
281.6000,-9.98061E+006,324.608
281.5000,-9.96996E+006,324.61
281.4000,-9.87243E+006,324.632
281.3000,-9.75865E+006,324.643
281.2000,-9.67123E+006,324.643
281.1000,-9.62606E+006,324.643
281.0000,-9.60859E+006,324.643
280.9000,-9.55315E+006,324.642
280.8000,-9.41225E+006,324.64
280.7000,-9.40964E+006,324.645
280.6000,-9.42439E+006,324.653
280.5000,-9.49981E+006,324.647
280.4000,-9.58339E+006,324.646
280.3000,-9.57747E+006,324.646
280.2000,-9.61027E+006,324.641
280.1000,-9.64298E+006,324.64
280.0000,-9.74661E+006,324.637
279.9000,-9.79355E+006,324.629
279.8000,-9.72283E+006,324.611
279.7000,-9.71931E+006,324.61
279.6000,-9.68722E+006,324.612
279.5000,-9.71002E+006,324.609
279.4000,-9.69648E+006,324.608
279.3000,-9.65589E+006,324.604
279.2000,-9.55604E+006,324.604
279.1000,-9.54273E+006,324.606
279.0000,-9.6703E+006,324.609
278.9000,-9.73418E+006,324.603
278.8000,-9.79749E+006,324.608
278.7000,-9.81462E+006,324.616
278.6000,-9.73345E+006,324.63
278.5000,-9.72437E+006,324.646
278.4000,-9.84089E+006,324.658
278.3000,-9.95937E+006,324.671
278.2000,-9.98712E+006,324.683
278.1000,-9.96317E+006,324.697
278.0000,-9.88491E+006,324.7
277.9000,-9.8699E+006,324.699
277.8000,-9.92362E+006,324.695
277.7000,-9.96953E+006,324.691
277.6000,-9.98628E+006,324.705
277.5000,-9.93154E+006,324.718
277.4000,-9.9053E+006,324.733
277.3000,-9.92767E+006,324.751
277.2000,-9.99182E+006,324.763
277.1000,-1.00474E+007,324.775
277.0000,-1.00912E+007,324.789
276.9000,-1.00872E+007,324.809
276.8000,-1.01831E+007,324.813
276.7000,-1.01808E+007,324.813
276.6000,-1.01541E+007,324.817
276.5000,-1.0026E+007,324.822
276.4000,-9.94525E+006,324.822
276.3000,-9.95794E+006,324.819
276.2000,-9.96255E+006,324.816
276.1000,-9.99329E+006,324.815
276.0000,-9.98676E+006,324.837
275.9000,-9.9431E+006,324.86
275.8000,-1.01024E+007,324.875
275.7000,-1.02348E+007,324.888
275.6000,-1.02858E+007,324.91
275.5000,-1.03034E+007,324.932
275.4000,-1.03336E+007,324.96
275.3000,-1.03277E+007,324.985
275.2000,-1.0359E+007,324.995
275.1000,-1.03513E+007,325.002
275.0000,-1.02466E+007,325.012
274.9000,-1.01997E+007,325.021
274.8000,-1.03319E+007,325.027
274.7000,-1.04193E+007,325.037
274.6000,-1.03677E+007,325.052
274.5000,-1.04248E+007,325.06
274.4000,-1.04016E+007,325.067
274.3000,-1.03414E+007,325.076
274.2000,-1.03018E+007,325.085
274.1000,-1.02837E+007,325.097
274.0000,-1.02346E+007,325.111
273.9000,-1.02737E+007,325.122
273.8000,-1.0349E+007,325.134
273.7000,-1.0389E+007,325.148
273.6000,-1.04406E+007,325.16
273.5000,-1.06206E+007,325.166
273.4000,-1.0708E+007,325.175
273.3000,-1.08327E+007,325.187
273.2000,-1.08741E+007,325.203
273.1000,-1.08798E+007,325.219
273.0000,-1.08166E+007,325.234
272.9000,-1.0843E+007,325.245
272.8000,-1.07586E+007,325.261
272.7000,-1.06392E+007,325.287
272.6000,-1.06138E+007,325.31
272.5000,-1.05695E+007,325.331
272.4000,-1.05937E+007,325.343
272.3000,-1.05257E+007,325.358
272.2000,-1.04684E+007,325.374
272.1000,-1.04377E+007,325.392
272.0000,-1.03766E+007,325.41
271.9000,-1.04918E+007,325.424
271.8000,-1.06039E+007,325.436
271.7000,-1.07078E+007,325.451
271.6000,-1.0673E+007,325.467
271.5000,-1.07244E+007,325.484
271.4000,-1.09039E+007,325.496
271.3000,-1.09769E+007,325.507
271.2000,-1.10484E+007,325.518
271.1000,-1.11087E+007,325.53
271.0000,-1.10159E+007,325.543
270.9000,-1.08936E+007,325.541
270.8000,-1.08979E+007,325.538
270.7000,-1.09742E+007,325.535
270.6000,-1.09175E+007,325.533
270.5000,-1.08251E+007,325.529
270.4000,-1.0879E+007,325.52
270.3000,-1.08794E+007,325.51
270.2000,-1.08727E+007,325.506
270.1000,-1.09329E+007,325.514
270.0000,-1.10349E+007,325.53
269.9000,-1.1013E+007,325.543
269.8000,-1.10173E+007,325.555
269.7000,-1.11356E+007,325.571
269.6000,-1.11961E+007,325.598
269.5000,-1.12752E+007,325.627
269.4000,-1.13577E+007,325.643
269.3000,-1.14072E+007,325.66
269.2000,-1.13773E+007,325.681
269.1000,-1.13463E+007,325.701
269.0000,-1.1304E+007,325.72
268.9000,-1.11841E+007,325.742
268.8000,-1.11706E+007,325.757
268.7000,-1.12019E+007,325.771
268.6000,-1.12223E+007,325.795
268.5000,-1.12655E+007,325.828
268.4000,-1.13484E+007,325.862
268.3000,-1.14449E+007,325.883
268.2000,-1.1533E+007,325.914
268.1000,-1.16446E+007,325.943
268.0000,-1.16688E+007,325.979
267.9000,-1.17179E+007,326.02
267.8000,-1.16919E+007,326.065
267.7000,-1.16955E+007,326.107
267.6000,-1.17668E+007,326.144
267.5000,-1.18027E+007,326.189
267.4000,-1.18305E+007,326.227
267.3000,-1.17849E+007,326.27
267.2000,-1.18125E+007,326.31
267.1000,-1.17951E+007,326.352
267.0000,-1.18104E+007,326.394
266.9000,-1.18273E+007,326.437
266.8000,-1.17788E+007,326.483
266.7000,-1.17193E+007,326.515
266.6000,-1.16259E+007,326.559
266.5000,-1.1563E+007,326.61
266.4000,-1.14717E+007,326.66
266.3000,-1.14612E+007,326.714
266.2000,-1.157E+007,326.764
266.1000,-1.15835E+007,326.819
266.0000,-1.1564E+007,326.852
265.9000,-1.16581E+007,326.894
265.8000,-1.1835E+007,326.947
265.7000,-1.20444E+007,327.002
265.6000,-1.22564E+007,327.069
265.5000,-1.23428E+007,327.129
265.4000,-1.22241E+007,327.171
265.3000,-1.21824E+007,327.203
265.2000,-1.21959E+007,327.254
265.1000,-1.21413E+007,327.321
265.0000,-1.20605E+007,327.381
264.9000,-1.20522E+007,327.444
264.8000,-1.20539E+007,327.482
264.7000,-1.20543E+007,327.523
264.6000,-1.22062E+007,327.579
264.5000,-1.23655E+007,327.648
264.4000,-1.23365E+007,327.721
264.3000,-1.24101E+007,327.771
264.2000,-1.24661E+007,327.823
264.1000,-1.2455E+007,327.877
264.0000,-1.2446E+007,327.934
263.9000,-1.24244E+007,327.996
263.8000,-1.23788E+007,328.051
263.7000,-1.22482E+007,328.106
263.6000,-1.21921E+007,328.159
263.5000,-1.22101E+007,328.217
263.4000,-1.21629E+007,328.288
263.3000,-1.22174E+007,328.338
263.2000,-1.22182E+007,328.394
263.1000,-1.22366E+007,328.456
263.0000,-1.22654E+007,328.526
262.9000,-1.22732E+007,328.588
262.8000,-1.22294E+007,328.66
262.7000,-1.21891E+007,328.735
262.6000,-1.21723E+007,328.811
262.5000,-1.20854E+007,328.897
262.4000,-1.20234E+007,328.969
262.3000,-1.20196E+007,329.043
262.2000,-1.20705E+007,329.111
262.1000,-1.21591E+007,329.19
262.0000,-1.22814E+007,329.25
261.9000,-1.24953E+007,329.309
261.8000,-1.25425E+007,329.378
261.7000,-1.25324E+007,329.433
261.6000,-1.26356E+007,329.496
261.5000,-1.27301E+007,329.565
261.4000,-1.27555E+007,329.636
261.3000,-1.26364E+007,329.7
261.2000,-1.26528E+007,329.775
261.1000,-1.26873E+007,329.858
261.0000,-1.27401E+007,329.942
260.9000,-1.28066E+007,330.018
260.8000,-1.27593E+007,330.102
260.7000,-1.2721E+007,330.183
260.6000,-1.26726E+007,330.253
260.5000,-1.27456E+007,330.327
260.4000,-1.27438E+007,330.412
260.3000,-1.26979E+007,330.493
260.2000,-1.25762E+007,330.554
260.1000,-1.25223E+007,330.624
260.0000,-1.24761E+007,330.708
259.9000,-1.24623E+007,330.781
259.8000,-1.24789E+007,330.867
259.7000,-1.2465E+007,330.951
259.6000,-1.24721E+007,331.016
259.5000,-1.25756E+007,331.075
259.4000,-1.26026E+007,331.154
259.3000,-1.26264E+007,331.236
259.2000,-1.28409E+007,331.317
259.1000,-1.30302E+007,331.403
259.0000,-1.31383E+007,331.472
258.9000,-1.31272E+007,331.544
258.8000,-1.31975E+007,331.626
258.7000,-1.32712E+007,331.702
258.6000,-1.32447E+007,331.776
258.5000,-1.32797E+007,331.85
258.4000,-1.31678E+007,331.913
258.3000,-1.30296E+007,331.979
258.2000,-1.29652E+007,332.058
258.1000,-1.2997E+007,332.133
258.0000,-1.29584E+007,332.217
257.9000,-1.28866E+007,332.311
257.8000,-1.29058E+007,332.402
257.7000,-1.30006E+007,332.499
257.6000,-1.32014E+007,332.599
257.5000,-1.32664E+007,332.691
257.4000,-1.32333E+007,332.79
257.3000,-1.31256E+007,332.885
257.2000,-1.31223E+007,332.97
257.1000,-1.3096E+007,333.051
257.0000,-1.3038E+007,333.131
256.9000,-1.28387E+007,333.211
256.8000,-1.27419E+007,333.28
256.7000,-1.28154E+007,333.353
256.6000,-1.29473E+007,333.424
256.5000,-1.31072E+007,333.495
256.4000,-1.31791E+007,333.575
256.3000,-1.32133E+007,333.648
256.2000,-1.32182E+007,333.725
256.1000,-1.33779E+007,333.81
256.0000,-1.3515E+007,333.886
255.9000,-1.35284E+007,333.964
255.8000,-1.34546E+007,334.028
255.7000,-1.33515E+007,334.098
255.6000,-1.34084E+007,334.172
255.5000,-1.34454E+007,334.246
255.4000,-1.34926E+007,334.324
255.3000,-1.34855E+007,334.386
255.2000,-1.34128E+007,334.457
255.1000,-1.33982E+007,334.528
255.0000,-1.34295E+007,334.609
254.9000,-1.35102E+007,334.682
254.8000,-1.35474E+007,334.754
254.7000,-1.3494E+007,334.841
254.6000,-1.34888E+007,334.931
254.5000,-1.35179E+007,335.031
254.4000,-1.35436E+007,335.125
254.3000,-1.35995E+007,335.225
254.2000,-1.35204E+007,335.32
254.1000,-1.35177E+007,335.421
254.0000,-1.34694E+007,335.517
253.9000,-1.34171E+007,335.611
253.8000,-1.34073E+007,335.684
253.7000,-1.33761E+007,335.754
253.6000,-1.34042E+007,335.816
253.5000,-1.34686E+007,335.884
253.4000,-1.34471E+007,335.953
253.3000,-1.34557E+007,336.028
253.2000,-1.34138E+007,336.102
253.1000,-1.34502E+007,336.172
253.0000,-1.34773E+007,336.243
252.9000,-1.35205E+007,336.323
252.8000,-1.34559E+007,336.409
252.7000,-1.32975E+007,336.496
252.6000,-1.32864E+007,336.568
252.5000,-1.33944E+007,336.638
252.4000,-1.34577E+007,336.709
252.3000,-1.35388E+007,336.79
252.2000,-1.35753E+007,336.869
252.1000,-1.36514E+007,336.95
252.0000,-1.36484E+007,337.029
251.9000,-1.37739E+007,337.098
251.8000,-1.38389E+007,337.183
251.7000,-1.37715E+007,337.27
251.6000,-1.37769E+007,337.359
251.5000,-1.37881E+007,337.443
251.4000,-1.37868E+007,337.541
251.3000,-1.38332E+007,337.627
251.2000,-1.39521E+007,337.7
251.1000,-1.40511E+007,337.782
251.0000,-1.40689E+007,337.863
250.9000,-1.41405E+007,337.949
250.8000,-1.41902E+007,338.03
250.7000,-1.42604E+007,338.116
250.6000,-1.43087E+007,338.184
250.5000,-1.42747E+007,338.258
250.4000,-1.43094E+007,338.358
250.3000,-1.43528E+007,338.46
250.2000,-1.44714E+007,338.568
250.1000,-1.46307E+007,338.663
250.0000,-1.46759E+007,338.756
249.9000,-1.46232E+007,338.852
249.8000,-1.45866E+007,338.944
249.7000,-1.47312E+007,339.047
249.6000,-1.4774E+007,339.14
249.5000,-1.47144E+007,339.231
249.4000,-1.46054E+007,339.323
249.3000,-1.44784E+007,339.411
249.2000,-1.43824E+007,339.496
249.1000,-1.43127E+007,339.58
249.0000,-1.4258E+007,339.665
248.9000,-1.41808E+007,339.745
248.8000,-1.40393E+007,339.831
248.7000,-1.4021E+007,339.912
248.6000,-1.40941E+007,339.988
248.5000,-1.41229E+007,340.074
248.4000,-1.41961E+007,340.168
248.3000,-1.43026E+007,340.257
248.2000,-1.43996E+007,340.357
248.1000,-1.44614E+007,340.464
248.0000,-1.4517E+007,340.564
247.9000,-1.45728E+007,340.675
247.8000,-1.45636E+007,340.783
247.7000,-1.45316E+007,340.88
247.6000,-1.44809E+007,340.971
247.5000,-1.45078E+007,341.056
247.4000,-1.44908E+007,341.14
247.3000,-1.46481E+007,341.212
247.2000,-1.47121E+007,341.291
247.1000,-1.48138E+007,341.36
247.0000,-1.48721E+007,341.433
246.9000,-1.49885E+007,341.524
246.8000,-1.5068E+007,341.61
246.7000,-1.52065E+007,341.697
246.6000,-1.526E+007,341.779
246.5000,-1.52841E+007,341.872
246.4000,-1.52618E+007,341.965
246.3000,-1.51546E+007,342.064
246.2000,-1.52196E+007,342.161
246.1000,-1.53437E+007,342.258
246.0000,-1.54288E+007,342.353
245.9000,-1.53736E+007,342.457
245.8000,-1.52599E+007,342.569
245.7000,-1.52708E+007,342.684
245.6000,-1.53044E+007,342.791
245.5000,-1.53501E+007,342.895
245.4000,-1.54346E+007,342.996
245.3000,-1.5389E+007,343.092
245.2000,-1.5279E+007,343.205
245.1000,-1.53237E+007,343.321
245.0000,-1.53962E+007,343.436
244.9000,-1.55028E+007,343.544
244.8000,-1.55465E+007,343.651
244.7000,-1.55196E+007,343.765
244.6000,-1.56046E+007,343.875
244.5000,-1.55673E+007,343.989
244.4000,-1.56345E+007,344.098
244.3000,-1.56828E+007,344.203
244.2000,-1.5757E+007,344.31
244.1000,-1.56739E+007,344.432
244.0000,-1.56164E+007,344.556
243.9000,-1.5558E+007,344.682
243.8000,-1.54791E+007,344.81
243.7000,-1.53226E+007,344.944
243.6000,-1.52502E+007,345.073
243.5000,-1.52585E+007,345.2
243.4000,-1.52097E+007,345.338
243.3000,-1.5229E+007,345.472
243.2000,-1.52498E+007,345.606
243.1000,-1.52616E+007,345.739
243.0000,-1.54473E+007,345.87
242.9000,-1.56912E+007,346.003
242.8000,-1.58551E+007,346.133
242.7000,-1.58249E+007,346.267
242.6000,-1.5766E+007,346.39
242.5000,-1.58401E+007,346.505
242.4000,-1.58663E+007,346.631
242.3000,-1.59297E+007,346.766
242.2000,-1.60308E+007,346.905
242.1000,-1.60732E+007,347.051
242.0000,-1.61033E+007,347.198
241.9000,-1.60499E+007,347.348
241.8000,-1.61252E+007,347.498
241.7000,-1.61037E+007,347.655
241.6000,-1.61365E+007,347.807
241.5000,-1.62999E+007,347.958
241.4000,-1.64448E+007,348.109
241.3000,-1.65154E+007,348.26
241.2000,-1.64677E+007,348.413
241.1000,-1.65292E+007,348.571
241.0000,-1.65752E+007,348.729
240.9000,-1.65555E+007,348.891
240.8000,-1.64752E+007,349.059
240.7000,-1.63427E+007,349.229
240.6000,-1.62012E+007,349.396
240.5000,-1.60083E+007,349.564
240.4000,-1.59811E+007,349.731
240.3000,-1.60022E+007,349.906
240.2000,-1.60212E+007,350.084
240.1000,-1.60755E+007,350.264
240.0000,-1.61845E+007,350.441
239.9000,-1.62966E+007,350.618
239.8000,-1.63931E+007,350.799
239.7000,-1.63727E+007,350.988
239.6000,-1.62951E+007,351.177
239.5000,-1.62449E+007,351.363
239.4000,-1.62444E+007,351.552
239.3000,-1.62907E+007,351.747
239.2000,-1.6285E+007,351.946
239.1000,-1.62729E+007,352.149
239.0000,-1.6333E+007,352.354
238.9000,-1.64302E+007,352.56
238.8000,-1.66845E+007,352.764
238.7000,-1.68849E+007,352.974
238.6000,-1.70146E+007,353.182
238.5000,-1.7041E+007,353.393
238.4000,-1.7165E+007,353.604
238.3000,-1.72469E+007,353.816
238.2000,-1.74243E+007,354.025
238.1000,-1.74727E+007,354.238
238.0000,-1.73815E+007,354.457
237.9000,-1.72384E+007,354.677
237.8000,-1.73598E+007,354.889
237.7000,-1.74612E+007,355.103
237.6000,-1.7348E+007,355.323
237.5000,-1.722E+007,355.55
237.4000,-1.71216E+007,355.782
237.3000,-1.69767E+007,356.016
237.2000,-1.70057E+007,356.251
237.1000,-1.69715E+007,356.478
237.0000,-1.68816E+007,356.708
236.9000,-1.68618E+007,356.939
236.8000,-1.69784E+007,357.168
236.7000,-1.71139E+007,357.397
236.6000,-1.7215E+007,357.614
236.5000,-1.7315E+007,357.833
236.4000,-1.73552E+007,358.051
236.3000,-1.75002E+007,358.274
236.2000,-1.77756E+007,358.504
236.1000,-1.78692E+007,358.731
236.0000,-1.77214E+007,358.966
235.9000,-1.77084E+007,359.202
235.8000,-1.77446E+007,359.449
235.7000,-1.78906E+007,359.687
235.6000,-1.8037E+007,359.924
235.5000,-1.81177E+007,360.166
235.4000,-1.80057E+007,360.412
235.3000,-1.78919E+007,360.661
235.2000,-1.7923E+007,360.911
235.1000,-1.80162E+007,361.161
235.0000,-1.80521E+007,361.413
234.9000,-1.80311E+007,361.668
234.8000,-1.79105E+007,361.928
234.7000,-1.78592E+007,362.19
234.6000,-1.79724E+007,362.443
234.5000,-1.80332E+007,362.702
234.4000,-1.81264E+007,362.962
234.3000,-1.83005E+007,363.218
234.2000,-1.82738E+007,363.474
234.1000,-1.82987E+007,363.733
234.0000,-1.83475E+007,363.988
233.9000,-1.85917E+007,364.243
233.8000,-1.86152E+007,364.509
233.7000,-1.86377E+007,364.771
233.6000,-1.87369E+007,365.038
233.5000,-1.87004E+007,365.311
233.4000,-1.8714E+007,365.578
233.3000,-1.88981E+007,365.844
233.2000,-1.88359E+007,366.127
233.1000,-1.88659E+007,366.402
233.0000,-1.87878E+007,366.679
232.9000,-1.87329E+007,366.957
232.8000,-1.87027E+007,367.238
232.7000,-1.87553E+007,367.513
232.6000,-1.87259E+007,367.785
232.5000,-1.87097E+007,368.061
232.4000,-1.8817E+007,368.325
232.3000,-1.88588E+007,368.594
232.2000,-1.88561E+007,368.862
232.1000,-1.90027E+007,369.133
232.0000,-1.91655E+007,369.397
231.9000,-1.92106E+007,369.663
231.8000,-1.93595E+007,369.928
231.7000,-1.95279E+007,370.202
231.6000,-1.96797E+007,370.481
231.5000,-1.9781E+007,370.758
231.4000,-1.98488E+007,371.041
231.3000,-1.99834E+007,371.314
231.2000,-2.00145E+007,371.597
231.1000,-2.00886E+007,371.877
231.0000,-2.02176E+007,372.154
230.9000,-2.03326E+007,372.434
230.8000,-2.03158E+007,372.708
230.7000,-2.03327E+007,372.988
230.6000,-2.04695E+007,373.267
230.5000,-2.05765E+007,373.554
230.4000,-2.05795E+007,373.843
230.3000,-2.04566E+007,374.138
230.2000,-2.04047E+007,374.433
230.1000,-2.03483E+007,374.729
230.0000,-2.0322E+007,375.02
229.9000,-2.03201E+007,375.304
229.8000,-2.01659E+007,375.588
229.7000,-2.00573E+007,375.865
229.6000,-2.00319E+007,376.14
229.5000,-2.01457E+007,376.4
229.4000,-2.03613E+007,376.648
229.3000,-2.02925E+007,376.901
229.2000,-2.03597E+007,377.149
229.1000,-2.04847E+007,377.395
229.0000,-2.07854E+007,377.643
228.9000,-2.09627E+007,377.895
228.8000,-2.11483E+007,378.146
228.7000,-2.12529E+007,378.414
228.6000,-2.13215E+007,378.696
228.5000,-2.13195E+007,378.985
228.4000,-2.13274E+007,379.287
228.3000,-2.13799E+007,379.595
228.2000,-2.12653E+007,379.91
228.1000,-2.13359E+007,380.226
228.0000,-2.12681E+007,380.546
227.9000,-2.13722E+007,380.859
227.8000,-2.13521E+007,381.165
227.7000,-2.1227E+007,381.479
227.6000,-2.13297E+007,381.778
227.5000,-2.13325E+007,382.07
227.4000,-2.1244E+007,382.362
227.3000,-2.11272E+007,382.656
227.2000,-2.11134E+007,382.944
227.1000,-2.11076E+007,383.232
227.0000,-2.11419E+007,383.515
226.9000,-2.11937E+007,383.791
226.8000,-2.12843E+007,384.069
226.7000,-2.13498E+007,384.349
226.6000,-2.16019E+007,384.626
226.5000,-2.16928E+007,384.897
226.4000,-2.20164E+007,385.154
226.3000,-2.23067E+007,385.408
226.2000,-2.23937E+007,385.675
226.1000,-2.24033E+007,385.945
226.0000,-2.25006E+007,386.208
225.9000,-2.24476E+007,386.469
225.8000,-2.23614E+007,386.731
225.7000,-2.22953E+007,386.998
225.6000,-2.22585E+007,387.266
225.5000,-2.1937E+007,387.539
225.4000,-2.18446E+007,387.806
225.3000,-2.19378E+007,388.071
225.2000,-2.20153E+007,388.339
225.1000,-2.20676E+007,388.609
225.0000,-2.21088E+007,388.88
224.9000,-2.22095E+007,389.142
224.8000,-2.2245E+007,389.404
224.7000,-2.22652E+007,389.669
224.6000,-2.24296E+007,389.928
224.5000,-2.25067E+007,390.186
224.4000,-2.25351E+007,390.439
224.3000,-2.26327E+007,390.695
224.2000,-2.29171E+007,390.946
224.1000,-2.30873E+007,391.199
224.0000,-2.30471E+007,391.458
223.9000,-2.29593E+007,391.718
223.8000,-2.28553E+007,391.978
223.7000,-2.27355E+007,392.238
223.6000,-2.2772E+007,392.495
223.5000,-2.28488E+007,392.753
223.4000,-2.25386E+007,393.011
223.3000,-2.23667E+007,393.26
223.2000,-2.23915E+007,393.504
223.1000,-2.25232E+007,393.745
223.0000,-2.25914E+007,393.99
222.9000,-2.2604E+007,394.233
222.8000,-2.26721E+007,394.472
222.7000,-2.25413E+007,394.715
222.6000,-2.2561E+007,394.955
222.5000,-2.25605E+007,395.205
222.4000,-2.26203E+007,395.451
222.3000,-2.26898E+007,395.696
222.2000,-2.27637E+007,395.94
222.1000,-2.27938E+007,396.186
222.0000,-2.27412E+007,396.438
221.9000,-2.25609E+007,396.682
221.8000,-2.24798E+007,396.924
221.7000,-2.26347E+007,397.163
221.6000,-2.28481E+007,397.401
221.5000,-2.28435E+007,397.645
221.4000,-2.27216E+007,397.882
221.3000,-2.25208E+007,398.118
221.2000,-2.25107E+007,398.349
221.1000,-2.27343E+007,398.579
221.0000,-2.31419E+007,398.803
220.9000,-2.31491E+007,399.034
220.8000,-2.30104E+007,399.27
220.7000,-2.30893E+007,399.495
220.6000,-2.31823E+007,399.725
220.5000,-2.35356E+007,399.956
220.4000,-2.38464E+007,400.18
220.3000,-2.37177E+007,400.412
220.2000,-2.33532E+007,400.648
220.1000,-2.33332E+007,400.875
220.0000,-2.32848E+007,401.098
219.9000,-2.31385E+007,401.329
219.8000,-2.2942E+007,401.556
219.7000,-2.28084E+007,401.778
219.6000,-2.27114E+007,402
219.5000,-2.28471E+007,402.221
219.4000,-2.30519E+007,402.442
219.3000,-2.30488E+007,402.667
219.2000,-2.29938E+007,402.895
219.1000,-2.2827E+007,403.121
219.0000,-2.27893E+007,403.35
218.9000,-2.27829E+007,403.578
218.8000,-2.27954E+007,403.806
218.7000,-2.26427E+007,404.034
218.6000,-2.26034E+007,404.261
218.5000,-2.29016E+007,404.478
218.4000,-2.32018E+007,404.697
218.3000,-2.35819E+007,404.911
218.2000,-2.39875E+007,405.123
218.1000,-2.42118E+007,405.334
218.0000,-2.43893E+007,405.549
217.9000,-2.43999E+007,405.761
217.8000,-2.44492E+007,405.966
217.7000,-2.44809E+007,406.175
217.6000,-2.4149E+007,406.388
217.5000,-2.40179E+007,406.603
217.4000,-2.39192E+007,406.815
217.3000,-2.34986E+007,407.031
217.2000,-2.2921E+007,407.252
217.1000,-2.27532E+007,407.47
217.0000,-2.27919E+007,407.683
216.9000,-2.27792E+007,407.9
216.8000,-2.2824E+007,408.115
216.7000,-2.27651E+007,408.325
216.6000,-2.24681E+007,408.544
216.5000,-2.26647E+007,408.754
216.4000,-2.29769E+007,408.958
216.3000,-2.32403E+007,409.158
216.2000,-2.32625E+007,409.374
216.1000,-2.32658E+007,409.588
216.0000,-2.32705E+007,409.798
215.9000,-2.33819E+007,410.006
215.8000,-2.36824E+007,410.21
215.7000,-2.36118E+007,410.429
215.6000,-2.3501E+007,410.651
215.5000,-2.34411E+007,410.872
215.4000,-2.34126E+007,411.089
215.3000,-2.32526E+007,411.306
215.2000,-2.32668E+007,411.522
215.1000,-2.33198E+007,411.747
215.0000,-2.30792E+007,411.977
214.9000,-2.29113E+007,412.203
214.8000,-2.31052E+007,412.421
214.7000,-2.32841E+007,412.641
214.6000,-2.35089E+007,412.859
214.5000,-2.39411E+007,413.075
214.4000,-2.40631E+007,413.298
214.3000,-2.39201E+007,413.524
214.2000,-2.39982E+007,413.745
214.1000,-2.43058E+007,413.959
214.0000,-2.46571E+007,414.174
213.9000,-2.4854E+007,414.395
213.8000,-2.48303E+007,414.621
213.7000,-2.46058E+007,414.854
213.6000,-2.45001E+007,415.086
213.5000,-2.45836E+007,415.318
213.4000,-2.46848E+007,415.551
213.3000,-2.46932E+007,415.791
213.2000,-2.44555E+007,416.039
213.1000,-2.43756E+007,416.284
213.0000,-2.44126E+007,416.529
212.9000,-2.42905E+007,416.779
212.8000,-2.41695E+007,417.025
212.7000,-2.42515E+007,417.268
212.6000,-2.43101E+007,417.514
212.5000,-2.44254E+007,417.762
212.4000,-2.45117E+007,418.009
212.3000,-2.44252E+007,418.254
212.2000,-2.4586E+007,418.494
212.1000,-2.47953E+007,418.738
212.0000,-2.5054E+007,418.99
211.9000,-2.50944E+007,419.251
211.8000,-2.51325E+007,419.507
211.7000,-2.51623E+007,419.764
211.6000,-2.52097E+007,420.028
211.5000,-2.52041E+007,420.293
211.4000,-2.50572E+007,420.568
211.3000,-2.46558E+007,420.853
211.2000,-2.43622E+007,421.128
211.1000,-2.41485E+007,421.404
211.0000,-2.39065E+007,421.686
210.9000,-2.38055E+007,421.965
210.8000,-2.38463E+007,422.238
210.7000,-2.39312E+007,422.518
210.6000,-2.412E+007,422.794
210.5000,-2.44669E+007,423.068
210.4000,-2.46016E+007,423.347
210.3000,-2.4951E+007,423.627
210.2000,-2.51391E+007,423.904
210.1000,-2.53088E+007,424.187
210.0000,-2.51559E+007,424.477
209.9000,-2.51574E+007,424.766
209.8000,-2.51738E+007,425.051
209.7000,-2.515E+007,425.34
209.6000,-2.54373E+007,425.624
209.5000,-2.53186E+007,425.921
209.4000,-2.51316E+007,426.22
209.3000,-2.47729E+007,426.522
209.2000,-2.46071E+007,426.827
209.1000,-2.44729E+007,427.13
209.0000,-2.4403E+007,427.436
208.9000,-2.42083E+007,427.755
208.8000,-2.42037E+007,428.067
208.7000,-2.42555E+007,428.377
208.6000,-2.42674E+007,428.697
208.5000,-2.43966E+007,429.017
208.4000,-2.4475E+007,429.338
208.3000,-2.44334E+007,429.668
208.2000,-2.43185E+007,430
208.1000,-2.42971E+007,430.325
208.0000,-2.40689E+007,430.654
207.9000,-2.41151E+007,430.982
207.8000,-2.42469E+007,431.306
207.7000,-2.42064E+007,431.632
207.6000,-2.44534E+007,431.957
207.5000,-2.46812E+007,432.278
207.4000,-2.51743E+007,432.596
207.3000,-2.55697E+007,432.914
207.2000,-2.58234E+007,433.236
207.1000,-2.57206E+007,433.566
207.0000,-2.58338E+007,433.894
206.9000,-2.60978E+007,434.223
206.8000,-2.62061E+007,434.554
206.7000,-2.62639E+007,434.889
206.6000,-2.61117E+007,435.228
206.5000,-2.59536E+007,435.569
206.4000,-2.57847E+007,435.915
206.3000,-2.57635E+007,436.259
206.2000,-2.53453E+007,436.604
206.1000,-2.50068E+007,436.944
206.0000,-2.46285E+007,437.288
205.9000,-2.45476E+007,437.626
205.8000,-2.45372E+007,437.963
205.7000,-2.45257E+007,438.303
205.6000,-2.45388E+007,438.645
205.5000,-2.47059E+007,438.986
205.4000,-2.49521E+007,439.327
205.3000,-2.49918E+007,439.677
205.2000,-2.54617E+007,440.022
205.1000,-2.5899E+007,440.374
205.0000,-2.58367E+007,440.736
204.9000,-2.55537E+007,441.107
204.8000,-2.51345E+007,441.485
204.7000,-2.45278E+007,441.874
204.6000,-2.42556E+007,442.258
204.5000,-2.43965E+007,442.641
204.4000,-2.43096E+007,443.029
204.3000,-2.38951E+007,443.425
204.2000,-2.34597E+007,443.829
204.1000,-2.35612E+007,444.221
204.0000,-2.3814E+007,444.615
203.9000,-2.41665E+007,445.007
203.8000,-2.40825E+007,445.41
203.7000,-2.37294E+007,445.823
203.6000,-2.3473E+007,446.237
203.5000,-2.31006E+007,446.659
203.4000,-2.3222E+007,447.077
203.3000,-2.32652E+007,447.502
203.2000,-2.3185E+007,447.936
203.1000,-2.32104E+007,448.368
203.0000,-2.33305E+007,448.806
202.9000,-2.3376E+007,449.251
202.8000,-2.31983E+007,449.701
202.7000,-2.31549E+007,450.153
202.6000,-2.30575E+007,450.606
202.5000,-2.31744E+007,451.055
202.4000,-2.28549E+007,451.516
202.3000,-2.2485E+007,451.989
202.2000,-2.21016E+007,452.465
202.1000,-2.18163E+007,452.942
202.0000,-2.2131E+007,453.414
201.9000,-2.26296E+007,453.892
201.8000,-2.29667E+007,454.382
201.7000,-2.27832E+007,454.891
201.6000,-2.25482E+007,455.412
201.5000,-2.26432E+007,455.926
201.4000,-2.27437E+007,456.449
201.3000,-2.25731E+007,456.986
201.2000,-2.20978E+007,457.536
201.1000,-2.13974E+007,458.099
201.0000,-2.08405E+007,458.664
200.9000,-2.06745E+007,459.23
200.8000,-2.04423E+007,459.802
200.7000,-1.993E+007,460.391
200.6000,-1.97233E+007,460.988
200.5000,-1.96756E+007,461.595
200.4000,-1.97272E+007,462.212
200.3000,-1.94661E+007,462.843
200.2000,-1.90552E+007,463.489
200.1000,-1.84447E+007,464.145
200.0000,-1.79451E+007,464.811
199.9000,-1.78614E+007,465.478
199.8000,-1.79314E+007,466.146
199.7000,-1.76892E+007,466.819
199.6000,-1.78175E+007,467.497
199.5000,-1.81364E+007,468.186
199.4000,-1.83587E+007,468.885
199.3000,-1.84512E+007,469.595
199.2000,-1.87327E+007,470.32
199.1000,-1.89214E+007,471.06
199.0000,-1.89584E+007,471.823
198.9000,-1.88513E+007,472.613
198.8000,-1.8751E+007,473.424
198.7000,-1.86393E+007,474.261
198.6000,-1.81736E+007,475.123
198.5000,-1.79289E+007,476.011
198.4000,-1.76675E+007,476.92
198.3000,-1.73591E+007,477.853
198.2000,-1.72864E+007,478.814
198.1000,-1.69297E+007,479.81
198.0000,-1.66803E+007,480.84
197.9000,-1.64221E+007,481.9
197.8000,-1.66406E+007,482.991
197.7000,-1.68077E+007,484.118
197.6000,-1.66416E+007,485.275
197.5000,-1.66836E+007,486.454
197.4000,-1.64733E+007,487.651
197.3000,-1.60125E+007,488.862
197.2000,-1.59804E+007,490.057
197.1000,-1.56824E+007,491.246
197.0000,-1.52176E+007,492.433
196.9000,-1.46856E+007,493.622
196.8000,-1.45206E+007,494.817
196.7000,-1.41592E+007,496.037
196.6000,-1.33834E+007,497.298
196.5000,-1.33234E+007,498.586
196.4000,-1.33554E+007,499.941
196.3000,-1.33242E+007,501.369
196.2000,-1.37025E+007,502.86
196.1000,-1.3765E+007,504.43
196.0000,-1.41259E+007,506.076
195.9000,-1.43013E+007,507.826
195.8000,-1.46048E+007,509.674
195.7000,-1.48617E+007,511.643
195.6000,-1.522E+007,513.729
195.5000,-1.55488E+007,515.952
195.4000,-1.55248E+007,518.303
195.3000,-1.51923E+007,520.777
195.2000,-1.38878E+007,523.352
195.1000,-1.33658E+007,525.985
195.0000,-1.33406E+007,528.619
194.9000,-1.36303E+007,531.194
194.8000,-1.30743E+007,533.687
194.7000,-1.29557E+007,536.06
194.6000,-1.17816E+007,538.35
194.5000,-1.10168E+007,540.547
194.4000,-1.11075E+007,542.679
194.3000,-1.06309E+007,544.772
194.2000,-1.01918E+007,546.895
194.1000,-9.82272E+006,549.124
194.0000,-9.58682E+006,551.525
193.9000,-8.94624E+006,554.158
193.8000,-9.32027E+006,557.027
193.7000,-9.28346E+006,560.183
193.6000,-9.96109E+006,563.629
193.5000,-1.10034E+007,567.424
193.4000,-1.19249E+007,571.595
193.3000,-1.2148E+007,576.157
193.2000,-1.31463E+007,581.08
193.1000,-1.33383E+007,586.375
193.0000,-1.29805E+007,591.958
192.9000,-1.29428E+007,597.76
192.8000,-1.2525E+007,603.69
192.7000,-1.21179E+007,609.596
192.6000,-1.13279E+007,615.284
192.5000,-1.14579E+007,620.581
192.4000,-1.11195E+007,625.469
192.3000,-1.08578E+007,629.945
192.2000,-1.20801E+007,634.011
192.1000,-1.32783E+007,637.709
192.0000,-1.44086E+007,641.165
191.9000,-1.40904E+007,644.567
191.8000,-1.30088E+007,648.169
191.7000,-1.37709E+007,652.179
191.6000,-1.63282E+007,656.743
191.5000,-1.79522E+007,661.924
191.4000,-1.78174E+007,667.772
191.3000,-1.79217E+007,674.389
191.2000,-1.75019E+007,681.809
191.1000,-1.9613E+007,689.956
191.0000,-2.05909E+007,698.832
190.9000,-1.98171E+007,708.327
190.8000,-1.41391E+007,718.348
190.7000,-1.12248E+007,728.692
190.6000,-1.15441E+007,739.267
190.5000,-1.00907E+007,749.829
190.4000,-1.0902E+007,760.004
190.3000,-5.45891E+006,769.741
190.2000,-2.62244E+006,778.766
190.1000,1.24475E+006,787.075
190.0000,3.33333E+006,794.663

##### Extended Information
[Comments]
Sample name,ACE2_D2_0.6uM
Comment
User
Division
Company,CSIR-IMTECH

[Detailed Information]
Creation date,2/26/2024 4:53 PM

Data array type,Linear data array * 2
Horizontal axis,Wavelength [nm]
Vertical axis(1),Mol. Ellip.
Vertical axis(2),HT [V]
Start,350 nm
End,190 nm
Data interval,0.1 nm
Data points,1601    

[Measurement Information]
Instrument Name,JASCO CD
Model Name,J-815
Serial No.,B063061168

Measurement date,2/26/2024 4:50 PM

Photometric Mode,CD, HT
Measure Range,350 - 190 nm
Data pitch,0.1 nm
Sensitivity,Standard
D.I.T.,1 sec
Bandwidth,1.00 nm
Start Mode,Immediately
Scanning Speed,50 nm/min
Baseline Correction,None
Shutter Control,Manual
CD Detector,PMT
PMT Voltage,Auto
Accumulations,3
Concentration,0.6 umol/L

