TITLE	ACE2_Erg_0.8uM
DATA TYPE	
ORIGIN	JASCO
OWNER	
DATE	24/04/09
TIME	15:08:19
SPECTROMETER/DATA SYSTEM	
LOCALE	1033
RESOLUTION	
DELTAX	-0.1
XUNITS	NANOMETERS
YUNITS	Mol. Ellip.
Y2UNITS	HT [V]
FIRSTX	  350.0000
LASTX	  190.0000
NPOINTS	    1601
FIRSTY	-766186.62500
MAXY	10904143.00000
MINY	-3610451.75000
XYDATA
350.0000	-766187	486.316
349.9000	-702303	485.715
349.8000	-691517	484.807
349.7000	-700787	483.883
349.6000	-512837	483.221
349.5000	-482495	482.635
349.4000	-311100	481.731
349.3000	-205799	481.086
349.2000	-260498	480.535
349.1000	-195812	479.681
349.0000	-337065	479.038
348.9000	-477743	478.473
348.8000	-628332	477.594
348.7000	-670491	476.71
348.6000	-699004	476.077
348.5000	-863825	475.525
348.4000	-778382	474.651
348.3000	-851899	473.992
348.2000	-867101	473.416
348.1000	-923526	472.538
348.0000	-957859	471.881
347.9000	-1.03755E+006	471.306
347.8000	-886154	470.45
347.7000	-664886	469.583
347.6000	-485848	468.958
347.5000	-419759	468.432
347.4000	-441051	467.611
347.3000	-265155	467.005
347.2000	51108.4	466.498
347.1000	108963	465.708
347.0000	311018	465.128
346.9000	662156	464.632
346.8000	471013	463.85
346.7000	555282	463.063
346.6000	752017	462.484
346.5000	829496	461.72
346.4000	626947	460.935
346.3000	667255	460.348
346.2000	659857	459.572
346.1000	409348	458.773
346.0000	413746	458.183
345.9000	254677	457.666
345.8000	348024	456.869
345.7000	186033	456.269
345.6000	209764	455.758
345.5000	509297	455.026
345.4000	604472	454.493
345.3000	433251	454.038
345.2000	421640	453.325
345.1000	538615	452.61
345.0000	411849	452.085
344.9000	427618	451.413
344.8000	441961	450.726
344.7000	103285	450.19
344.6000	-108373	449.502
344.5000	-85250.5	448.806
344.4000	29015	448.29
344.3000	161236	447.591
344.2000	108381	446.87
344.1000	170094	446.321
344.0000	402359	445.646
343.9000	492877	444.963
343.8000	408987	444.455
343.7000	369411	444.018
343.6000	140417	443.335
343.5000	-193545	442.844
343.4000	-140302	442.449
343.3000	35302.9	441.832
343.2000	99735.6	441.37
343.1000	-20139.9	440.961
343.0000	-121264	440.346
342.9000	-75891.8	439.719
342.8000	179085	439.262
342.7000	488793	438.649
342.6000	568221	438.017
342.5000	519783	437.536
342.4000	313179	436.93
342.3000	175492	436.314
342.2000	282273	435.848
342.1000	292693	435.25
342.0000	32668.2	434.648
341.9000	-145019	434.225
341.8000	-286712	433.657
341.7000	-338325	433.087
341.6000	-398632	432.664
341.5000	-447790	432.128
341.4000	-365936	431.591
341.3000	-510866	431.189
341.2000	-551324	430.614
341.1000	-527875	430.019
341.0000	-374619	429.58
340.9000	-438608	429.016
340.8000	-560839	428.433
340.7000	-596583	427.977
340.6000	-521701	427.405
340.5000	-421488	426.825
340.4000	-352902	426.405
340.3000	-366849	425.869
340.2000	-391489	425.332
340.1000	-327325	424.941
340.0000	-198389	424.453
339.9000	-253941	423.96
339.8000	-473880	423.59
339.7000	-494252	423.131
339.6000	-376691	422.674
339.5000	-248610	422.357
339.4000	-201100	421.896
339.3000	-112005	421.408
339.2000	-215491	420.875
339.1000	-159160	420.396
339.0000	-82083	419.901
338.9000	-52700.9	419.33
338.8000	-313572	418.793
338.7000	-589828	418.247
338.6000	-796995	417.675
338.5000	-971144	417.18
338.4000	-985500	416.813
338.3000	-1.12983E+006	416.345
338.2000	-1.26651E+006	415.876
338.1000	-1.38364E+006	415.547
338.0000	-1.23355E+006	415.127
337.9000	-958624	414.704
337.8000	-794532	414.407
337.7000	-668866	414.017
337.6000	-605406	413.611
337.5000	-478950	413.306
337.4000	-265157	412.911
337.3000	-44640.5	412.498
337.2000	81736.6	412.022
337.1000	-13419.7	411.591
337.0000	-46996.7	411.152
336.9000	-102080	410.685
336.8000	-157285	410.274
336.7000	-188914	409.864
336.6000	-245220	409.408
336.5000	-330071	408.998
336.4000	-308624	408.719
336.3000	-324618	408.331
336.2000	-344997	407.933
336.1000	-389370	407.63
336.0000	-388609	407.243
335.9000	-445093	406.827
335.8000	-436870	406.374
335.7000	-416800	405.96
335.6000	-442956	405.536
335.5000	-509802	405.102
335.4000	-359722	404.731
335.3000	-302668	404.362
335.2000	-373266	403.959
335.1000	-327756	403.611
335.0000	-252843	403.383
334.9000	-147607	403.063
334.8000	-335262	402.726
334.7000	-381939	402.364
334.6000	-467548	402.041
334.5000	-541417	401.706
334.4000	-387285	401.318
334.3000	-284052	400.961
334.2000	-348009	400.583
334.1000	-581052	400.164
334.0000	-556845	399.802
333.9000	-424987	399.535
333.8000	-246540	399.184
333.7000	-140628	398.819
333.6000	-80848.3	398.434
333.5000	-46405.4	398.103
333.4000	-24662.9	397.774
333.3000	197707	397.437
333.2000	449405	397.152
333.1000	633376	396.856
333.0000	570822	396.528
332.9000	428444	396.232
332.8000	238121	395.885
332.7000	38021.5	395.571
332.6000	-40308.3	395.249
332.5000	32029.9	394.903
332.4000	22569.4	394.596
332.3000	-22543.2	394.281
332.2000	-123141	393.914
332.1000	-149073	393.583
332.0000	-135475	393.243
331.9000	-203752	392.959
331.8000	-283891	392.677
331.7000	-232249	392.353
331.6000	-211448	392.052
331.5000	-225608	391.638
331.4000	-301043	391.315
331.3000	-241542	391.043
331.2000	-234534	390.729
331.1000	-297026	390.443
331.0000	-349222	390.144
330.9000	-469413	389.836
330.8000	-729148	389.563
330.7000	-967491	389.244
330.6000	-939404	388.967
330.5000	-974142	388.686
330.4000	-942223	388.398
330.3000	-742939	388.158
330.2000	-491270	387.799
330.1000	-390737	387.505
330.0000	-349252	387.24
329.9000	-248361	386.96
329.8000	-164169	386.718
329.7000	-40955.5	386.377
329.6000	22126.9	386.098
329.5000	-17098.4	385.843
329.4000	-101972	385.546
329.3000	-79148.2	385.286
329.2000	29720.7	384.922
329.1000	161274	384.631
329.0000	69996.3	384.37
328.9000	-42052.8	384.099
328.8000	-87199.8	383.862
328.7000	-165527	383.524
328.6000	-151678	383.274
328.5000	-68421.3	383.069
328.4000	-66594.1	382.822
328.3000	-160718	382.604
328.2000	-160514	382.309
328.1000	-249494	382.067
328.0000	-296051	381.85
327.9000	-224994	381.598
327.8000	-171009	381.376
327.7000	-257101	381.108
327.6000	-344219	380.923
327.5000	-389511	380.78
327.4000	-373320	380.513
327.3000	-328829	380.268
327.2000	-335957	379.966
327.1000	-497481	379.736
327.0000	-574494	379.545
326.9000	-522639	379.269
326.8000	-449639	378.993
326.7000	-449292	378.668
326.6000	-563996	378.463
326.5000	-675293	378.323
326.4000	-748380	378.066
326.3000	-726412	377.821
326.2000	-727078	377.553
326.1000	-897617	377.366
326.0000	-879861	377.079
325.9000	-855037	376.821
325.8000	-757721	376.58
325.7000	-630995	376.332
325.6000	-532008	376.191
325.5000	-423208	375.911
325.4000	-321758	375.638
325.3000	-277699	375.362
325.2000	-291568	375.188
325.1000	-425870	375.06
325.0000	-450370	374.774
324.9000	-513191	374.486
324.8000	-446005	374.189
324.7000	-342552	374.035
324.6000	-310928	373.951
324.5000	-197500	373.69
324.4000	5010.35	373.43
324.3000	108733	373.182
324.2000	213181	373.049
324.1000	216882	372.796
324.0000	157416	372.541
323.9000	92820.9	372.28
323.8000	25964.5	372.043
323.7000	-67053.1	371.928
323.6000	-225455	371.661
323.5000	-303777	371.373
323.4000	-330967	371.094
323.3000	-328198	370.944
323.2000	-290228	370.854
323.1000	-317376	370.585
323.0000	-322986	370.295
322.9000	-372898	370.01
322.8000	-331357	369.874
322.7000	-367444	369.629
322.6000	-427762	369.356
322.5000	-499023	369.079
322.4000	-489704	368.804
322.3000	-432298	368.642
322.2000	-365951	368.365
322.1000	-224905	368.06
322.0000	-101838	367.759
321.9000	-9571.96	367.59
321.8000	-509.511	367.301
321.7000	72464.4	366.999
321.6000	-17338.7	366.682
321.5000	-62898.9	366.396
321.4000	-200280	366.244
321.3000	-255362	366.024
321.2000	-362403	365.799
321.1000	-527693	365.578
321.0000	-507958	365.509
320.9000	-573205	365.36
320.8000	-523993	365.213
320.7000	-538536	365.08
320.6000	-564224	364.944
320.5000	-620277	364.906
320.4000	-671711	364.746
320.3000	-633009	364.571
320.2000	-648731	364.404
320.1000	-726722	364.346
320.0000	-777646	364.187
319.9000	-695181	364.007
319.8000	-572816	363.821
319.7000	-415467	363.631
319.6000	-406510	363.415
319.5000	-429393	363.253
319.4000	-345297	363.074
319.3000	-272439	362.867
319.2000	-142557	362.77
319.1000	-41281	362.575
319.0000	-40411.2	362.361
318.9000	-113227	362.141
318.8000	-60134.5	362.024
318.7000	-19984.8	361.803
318.6000	-83911.5	361.571
318.5000	-160406	361.374
318.4000	-169696	361.178
318.3000	-277863	360.945
318.2000	-362548	360.769
318.1000	-441925	360.591
318.0000	-527810	360.412
317.9000	-619372	360.345
317.8000	-609483	360.213
317.7000	-595387	360.055
317.6000	-582697	359.87
317.5000	-601546	359.78
317.4000	-604236	359.618
317.3000	-497422	359.448
317.2000	-474228	359.267
317.1000	-402000	359.079
317.0000	-443101	358.837
316.9000	-478489	358.642
316.8000	-592272	358.462
316.7000	-738998	358.281
316.6000	-733357	358.104
316.5000	-747949	357.969
316.4000	-802860	357.811
316.3000	-815441	357.645
316.2000	-770547	357.475
316.1000	-668271	357.35
316.0000	-465789	357.223
315.9000	-249806	357.063
315.8000	-228400	356.96
315.7000	-272162	356.785
315.6000	-303646	356.628
315.5000	-368667	356.451
315.4000	-460552	356.344
315.3000	-505671	356.155
315.2000	-666219	355.955
315.1000	-786884	355.776
315.0000	-849159	355.601
314.9000	-789652	355.427
314.8000	-756998	355.278
314.7000	-729558	355.117
314.6000	-701301	354.959
314.5000	-712462	354.809
314.4000	-737564	354.7
314.3000	-838078	354.561
314.2000	-840100	354.425
314.1000	-800168	354.244
314.0000	-884318	354.085
313.9000	-878367	353.929
313.8000	-858271	353.782
313.7000	-873652	353.566
313.6000	-750633	353.375
313.5000	-708077	353.194
313.4000	-640589	353.016
313.3000	-601055	352.842
313.2000	-643751	352.697
313.1000	-661219	352.547
313.0000	-753863	352.397
312.9000	-785166	352.258
312.8000	-771232	352.164
312.7000	-731224	352.045
312.6000	-684339	351.927
312.5000	-699133	351.765
312.4000	-685121	351.616
312.3000	-647305	351.448
312.2000	-632548	351.278
312.1000	-585671	351.059
312.0000	-614523	350.854
311.9000	-640805	350.649
311.8000	-695888	350.405
311.7000	-717308	350.215
311.6000	-689369	350.028
311.5000	-636931	349.872
311.4000	-542425	349.672
311.3000	-445280	349.546
311.2000	-420641	349.423
311.1000	-451675	349.321
311.0000	-456810	349.206
310.9000	-520722	349.113
310.8000	-539599	349.008
310.7000	-574321	348.915
310.6000	-550324	348.789
310.5000	-686407	348.677
310.4000	-745261	348.574
310.3000	-773805	348.483
310.2000	-743487	348.397
310.1000	-683941	348.326
310.0000	-656940	348.249
309.9000	-672889	348.181
309.8000	-728551	348.119
309.7000	-684781	348.035
309.6000	-619145	347.964
309.5000	-616625	347.849
309.4000	-684794	347.754
309.3000	-802801	347.618
309.2000	-923387	347.506
309.1000	-957841	347.331
309.0000	-915727	347.186
308.9000	-930181	347.056
308.8000	-966416	346.938
308.7000	-1.04107E+006	346.827
308.6000	-1.03816E+006	346.73
308.5000	-971153	346.625
308.4000	-968222	346.503
308.3000	-992860	346.43
308.2000	-1.07896E+006	346.324
308.1000	-1.11394E+006	346.247
308.0000	-1.16312E+006	346.139
307.9000	-1.21581E+006	346.047
307.8000	-1.2535E+006	345.913
307.7000	-1.2953E+006	345.81
307.6000	-1.27816E+006	345.687
307.5000	-1.22702E+006	345.525
307.4000	-1.13406E+006	345.405
307.3000	-1.12543E+006	345.278
307.2000	-1.09715E+006	345.181
307.1000	-1.03227E+006	345.057
307.0000	-964696	344.969
306.9000	-918567	344.873
306.8000	-785568	344.816
306.7000	-740430	344.754
306.6000	-764942	344.661
306.5000	-800974	344.579
306.4000	-822130	344.457
306.3000	-710665	344.366
306.2000	-689631	344.239
306.1000	-695704	344.126
306.0000	-708885	343.976
305.9000	-799994	343.864
305.8000	-795041	343.786
305.7000	-751931	343.678
305.6000	-635196	343.604
305.5000	-787881	343.52
305.4000	-862730	343.47
305.3000	-806584	343.385
305.2000	-762341	343.328
305.1000	-731013	343.253
305.0000	-623255	343.135
304.9000	-632375	343.052
304.8000	-681737	342.94
304.7000	-650292	342.843
304.6000	-580627	342.714
304.5000	-525177	342.609
304.4000	-524136	342.519
304.3000	-504647	342.402
304.2000	-623728	342.334
304.1000	-648787	342.271
304.0000	-718247	342.236
303.9000	-772417	342.155
303.8000	-762401	342.078
303.7000	-830612	342.022
303.6000	-874089	341.914
303.5000	-896253	341.842
303.4000	-801410	341.75
303.3000	-713197	341.635
303.2000	-616620	341.522
303.1000	-555270	341.435
303.0000	-580631	341.383
302.9000	-625043	341.289
302.8000	-616832	341.215
302.7000	-716059	341.155
302.6000	-819600	341.07
302.5000	-914301	341.021
302.4000	-894697	340.966
302.3000	-870362	340.872
302.2000	-873883	340.778
302.1000	-871830	340.684
302.0000	-871711	340.623
301.9000	-865561	340.533
301.8000	-808067	340.458
301.7000	-798259	340.399
301.6000	-853183	340.307
301.5000	-954452	340.255
301.4000	-980110	340.2
301.3000	-1.03246E+006	340.121
301.2000	-974125	340.057
301.1000	-945967	339.994
301.0000	-1.02617E+006	339.955
300.9000	-1.04287E+006	339.876
300.8000	-1.06714E+006	339.795
300.7000	-1.11342E+006	339.729
300.6000	-1.16649E+006	339.646
300.5000	-1.16078E+006	339.581
300.4000	-1.22308E+006	339.53
300.3000	-1.3586E+006	339.449
300.2000	-1.4165E+006	339.375
300.1000	-1.3285E+006	339.32
300.0000	-1.3055E+006	339.261
299.9000	-1.27977E+006	339.209
299.8000	-1.31286E+006	339.157
299.7000	-1.35404E+006	339.089
299.6000	-1.41913E+006	339.024
299.5000	-1.39893E+006	338.96
299.4000	-1.3555E+006	338.912
299.3000	-1.35822E+006	338.847
299.2000	-1.35182E+006	338.794
299.1000	-1.30537E+006	338.757
299.0000	-1.26207E+006	338.692
298.9000	-1.23585E+006	338.646
298.8000	-1.18985E+006	338.612
298.7000	-1.16164E+006	338.557
298.6000	-1.15002E+006	338.508
298.5000	-1.12829E+006	338.458
298.4000	-1.10835E+006	338.394
298.3000	-1.11303E+006	338.336
298.2000	-1.07569E+006	338.277
298.1000	-969986	338.22
298.0000	-954734	338.168
297.9000	-996037	338.12
297.8000	-995475	338.054
297.7000	-894040	338.005
297.6000	-889840	337.965
297.5000	-903390	337.901
297.4000	-956347	337.856
297.3000	-1.08407E+006	337.814
297.2000	-1.09097E+006	337.748
297.1000	-969238	337.703
297.0000	-947223	337.656
296.9000	-994217	337.586
296.8000	-1.15197E+006	337.531
296.7000	-1.20937E+006	337.487
296.6000	-1.1596E+006	337.454
296.5000	-1.09097E+006	337.41
296.4000	-1.11015E+006	337.373
296.3000	-1.14624E+006	337.344
296.2000	-1.09309E+006	337.302
296.1000	-1.04488E+006	337.27
296.0000	-988099	337.245
295.9000	-960646	337.2
295.8000	-984535	337.134
295.7000	-1.01451E+006	337.089
295.6000	-912713	337.044
295.5000	-837103	336.981
295.4000	-861483	336.905
295.3000	-904604	336.856
295.2000	-937777	336.795
295.1000	-968577	336.725
295.0000	-1.03927E+006	336.683
294.9000	-1.08976E+006	336.632
294.8000	-1.18412E+006	336.562
294.7000	-1.39612E+006	336.515
294.6000	-1.50196E+006	336.478
294.5000	-1.53823E+006	336.428
294.4000	-1.61509E+006	336.389
294.3000	-1.63805E+006	336.359
294.2000	-1.67169E+006	336.309
294.1000	-1.73173E+006	336.268
294.0000	-1.76969E+006	336.243
293.9000	-1.70234E+006	336.197
293.8000	-1.58973E+006	336.169
293.7000	-1.55347E+006	336.149
293.6000	-1.53545E+006	336.097
293.5000	-1.53106E+006	336.036
293.4000	-1.51683E+006	336.006
293.3000	-1.51099E+006	335.962
293.2000	-1.52993E+006	335.906
293.1000	-1.63516E+006	335.878
293.0000	-1.64329E+006	335.829
292.9000	-1.63728E+006	335.775
292.8000	-1.65941E+006	335.753
292.7000	-1.64282E+006	335.726
292.6000	-1.58154E+006	335.688
292.5000	-1.50212E+006	335.632
292.4000	-1.33081E+006	335.602
292.3000	-1.08832E+006	335.558
292.2000	-1.03257E+006	335.508
292.1000	-1.03358E+006	335.481
292.0000	-961296	335.437
291.9000	-865435	335.386
291.8000	-794927	335.341
291.7000	-717332	335.324
291.6000	-720293	335.284
291.5000	-788547	335.239
291.4000	-868761	335.215
291.3000	-918871	335.164
291.2000	-994575	335.098
291.1000	-1.08656E+006	335.031
291.0000	-1.23335E+006	334.978
290.9000	-1.40328E+006	334.904
290.8000	-1.47107E+006	334.814
290.7000	-1.54388E+006	334.719
290.6000	-1.61026E+006	334.612
290.5000	-1.58109E+006	334.487
290.4000	-1.52058E+006	334.357
290.3000	-1.45891E+006	334.246
290.2000	-1.36349E+006	334.11
290.1000	-1.27477E+006	333.961
290.0000	-1.31908E+006	333.817
289.9000	-1.32759E+006	333.712
289.8000	-1.27376E+006	333.618
289.7000	-1.27573E+006	333.544
289.6000	-1.31689E+006	333.509
289.5000	-1.3714E+006	333.512
289.4000	-1.45472E+006	333.541
289.3000	-1.43675E+006	333.602
289.2000	-1.34121E+006	333.689
289.1000	-1.2639E+006	333.8
289.0000	-1.2632E+006	333.903
288.9000	-1.21733E+006	334.01
288.8000	-1.11819E+006	334.105
288.7000	-1.07423E+006	334.19
288.6000	-1.08884E+006	334.253
288.5000	-1.14388E+006	334.299
288.4000	-1.21668E+006	334.333
288.3000	-1.1925E+006	334.356
288.2000	-1.18534E+006	334.355
288.1000	-1.17326E+006	334.344
288.0000	-1.20512E+006	334.322
287.9000	-1.26976E+006	334.286
287.8000	-1.25531E+006	334.264
287.7000	-1.16949E+006	334.238
287.6000	-1.10816E+006	334.215
287.5000	-1.05892E+006	334.176
287.4000	-1.04516E+006	334.157
287.3000	-1.01851E+006	334.146
287.2000	-1.03578E+006	334.13
287.1000	-1.01225E+006	334.117
287.0000	-946459	334.079
286.9000	-1.03714E+006	334.055
286.8000	-1.02222E+006	334.04
286.7000	-1.04412E+006	334.021
286.6000	-1.06272E+006	333.993
286.5000	-1.08283E+006	333.978
286.4000	-1.06115E+006	333.967
286.3000	-1.04645E+006	333.966
286.2000	-1.06556E+006	333.962
286.1000	-935483	333.956
286.0000	-851350	333.959
285.9000	-762935	333.955
285.8000	-799127	333.949
285.7000	-795782	333.922
285.6000	-818968	333.896
285.5000	-907531	333.888
285.4000	-906798	333.878
285.3000	-894642	333.878
285.2000	-969912	333.845
285.1000	-1.11628E+006	333.821
285.0000	-1.15632E+006	333.825
284.9000	-1.18667E+006	333.82
284.8000	-1.18012E+006	333.819
284.7000	-1.12761E+006	333.79
284.6000	-1.04209E+006	333.773
284.5000	-1.04525E+006	333.773
284.4000	-991380	333.777
284.3000	-974172	333.789
284.2000	-1.00094E+006	333.767
284.1000	-947314	333.759
284.0000	-929245	333.742
283.9000	-985518	333.746
283.8000	-1.09306E+006	333.755
283.7000	-1.14601E+006	333.741
283.6000	-1.25165E+006	333.732
283.5000	-1.27683E+006	333.718
283.4000	-1.24371E+006	333.712
283.3000	-1.27944E+006	333.72
283.2000	-1.29091E+006	333.73
283.1000	-1.26048E+006	333.737
283.0000	-1.20094E+006	333.727
282.9000	-1.16496E+006	333.724
282.8000	-1.07226E+006	333.718
282.7000	-1.00671E+006	333.731
282.6000	-978117	333.751
282.5000	-940721	333.757
282.4000	-935427	333.756
282.3000	-1.06666E+006	333.747
282.2000	-1.17156E+006	333.742
282.1000	-1.18666E+006	333.759
282.0000	-1.22203E+006	333.77
281.9000	-1.29864E+006	333.77
281.8000	-1.3194E+006	333.761
281.7000	-1.3965E+006	333.751
281.6000	-1.41211E+006	333.747
281.5000	-1.35754E+006	333.747
281.4000	-1.2334E+006	333.769
281.3000	-1.22946E+006	333.772
281.2000	-1.21766E+006	333.772
281.1000	-1.16182E+006	333.77
281.0000	-1.09044E+006	333.768
280.9000	-1.03606E+006	333.765
280.8000	-972315	333.76
280.7000	-933979	333.756
280.6000	-928995	333.758
280.5000	-822733	333.754
280.4000	-826339	333.748
280.3000	-914383	333.738
280.2000	-1.08804E+006	333.724
280.1000	-1.13753E+006	333.712
280.0000	-1.07464E+006	333.701
279.9000	-1.11663E+006	333.69
279.8000	-1.13505E+006	333.666
279.7000	-1.18388E+006	333.657
279.6000	-1.26206E+006	333.65
279.5000	-1.23759E+006	333.649
279.4000	-1.13589E+006	333.652
279.3000	-1.04429E+006	333.657
279.2000	-1.10238E+006	333.66
279.1000	-1.03838E+006	333.667
279.0000	-1.05441E+006	333.669
278.9000	-1.07854E+006	333.662
278.8000	-1.08099E+006	333.669
278.7000	-1.0938E+006	333.675
278.6000	-1.08417E+006	333.682
278.5000	-1.05188E+006	333.691
278.4000	-1.00678E+006	333.697
278.3000	-982029	333.705
278.2000	-951934	333.717
278.1000	-887509	333.728
278.0000	-822525	333.725
277.9000	-751078	333.72
277.8000	-753026	333.713
277.7000	-790476	333.705
277.6000	-855079	333.717
277.5000	-956148	333.729
277.4000	-1.01667E+006	333.744
277.3000	-1.10136E+006	333.76
277.2000	-1.11288E+006	333.778
277.1000	-1.09545E+006	333.795
277.0000	-1.11326E+006	333.812
276.9000	-1.15729E+006	333.828
276.8000	-1.20002E+006	333.828
276.7000	-1.20315E+006	333.82
276.6000	-1.22153E+006	333.813
276.5000	-1.24318E+006	333.808
276.4000	-1.33841E+006	333.795
276.3000	-1.36212E+006	333.787
276.2000	-1.34981E+006	333.78
276.1000	-1.37536E+006	333.776
276.0000	-1.28711E+006	333.794
275.9000	-1.26675E+006	333.813
275.8000	-1.17511E+006	333.836
275.7000	-1.11226E+006	333.859
275.6000	-996533	333.889
275.5000	-924736	333.913
275.4000	-962066	333.934
275.3000	-919000	333.96
275.2000	-965314	333.972
275.1000	-995257	333.985
275.0000	-1.05313E+006	333.993
274.9000	-1.04335E+006	334.005
274.8000	-1.09022E+006	334.015
274.7000	-1.11789E+006	334.028
274.6000	-1.09419E+006	334.046
274.5000	-1.14769E+006	334.058
274.4000	-1.1288E+006	334.07
274.3000	-1.05629E+006	334.081
274.2000	-1.0778E+006	334.087
274.1000	-1.12161E+006	334.093
274.0000	-1.17118E+006	334.092
273.9000	-1.14714E+006	334.097
273.8000	-1.1437E+006	334.096
273.7000	-1.12743E+006	334.097
273.6000	-1.16273E+006	334.097
273.5000	-1.21483E+006	334.1
273.4000	-1.17859E+006	334.109
273.3000	-1.1851E+006	334.122
273.2000	-1.13727E+006	334.137
273.1000	-1.13918E+006	334.151
273.0000	-1.13171E+006	334.169
272.9000	-1.18977E+006	334.185
272.8000	-1.17888E+006	334.204
272.7000	-1.092E+006	334.225
272.6000	-1.06182E+006	334.245
272.5000	-1.0129E+006	334.265
272.4000	-984426	334.285
272.3000	-1.0238E+006	334.306
272.2000	-1.00679E+006	334.329
272.1000	-1.01328E+006	334.349
272.0000	-912656	334.373
271.9000	-852680	334.392
271.8000	-788611	334.405
271.7000	-698210	334.417
271.6000	-653335	334.428
271.5000	-612585	334.439
271.4000	-639284	334.445
271.3000	-631748	334.453
271.2000	-620568	334.458
271.1000	-658425	334.464
271.0000	-734418	334.471
270.9000	-898685	334.463
270.8000	-1.05999E+006	334.455
270.7000	-1.10914E+006	334.447
270.6000	-1.06089E+006	334.441
270.5000	-1.05078E+006	334.435
270.4000	-1.01011E+006	334.433
270.3000	-967582	334.43
270.2000	-942765	334.427
270.1000	-866654	334.435
270.0000	-818398	334.442
269.9000	-781358	334.452
269.8000	-767321	334.467
269.7000	-813224	334.481
269.6000	-878334	334.5
269.5000	-931643	334.516
269.4000	-918304	334.52
269.3000	-869612	334.531
269.2000	-867164	334.548
269.1000	-819074	334.575
269.0000	-780016	334.6
268.9000	-706708	334.629
268.8000	-660995	334.649
268.7000	-642116	334.679
268.6000	-708234	334.718
268.5000	-786494	334.768
268.4000	-806111	334.818
268.3000	-761693	334.853
268.2000	-808152	334.887
268.1000	-936196	334.916
268.0000	-970665	334.962
267.9000	-935222	335
267.8000	-913434	335.047
267.7000	-915536	335.081
267.6000	-1.02733E+006	335.116
267.5000	-1.08866E+006	335.153
267.4000	-1.09416E+006	335.18
267.3000	-919642	335.217
267.2000	-762171	335.245
267.1000	-789689	335.285
267.0000	-773693	335.327
266.9000	-800354	335.382
266.8000	-696312	335.434
266.7000	-674545	335.469
266.6000	-615599	335.522
266.5000	-669773	335.574
266.4000	-797041	335.636
266.3000	-850650	335.697
266.2000	-922743	335.759
266.1000	-958836	335.811
266.0000	-990064	335.848
265.9000	-999711	335.909
265.8000	-1.0014E+006	335.975
265.7000	-982652	336.04
265.6000	-1.00949E+006	336.097
265.5000	-980672	336.148
265.4000	-892496	336.181
265.3000	-747081	336.215
265.2000	-679223	336.269
265.1000	-580312	336.33
265.0000	-529337	336.391
264.9000	-475945	336.456
264.8000	-453219	336.503
264.7000	-378119	336.56
264.6000	-426345	336.623
264.5000	-508663	336.698
264.4000	-570943	336.774
264.3000	-637382	336.838
264.2000	-656273	336.906
264.1000	-706081	336.971
264.0000	-759141	337.045
263.9000	-771002	337.119
263.8000	-782576	337.183
263.7000	-769186	337.247
263.6000	-778211	337.305
263.5000	-806539	337.366
263.4000	-820685	337.431
263.3000	-766375	337.485
263.2000	-674856	337.545
263.1000	-667588	337.616
263.0000	-610033	337.703
262.9000	-544240	337.781
262.8000	-492372	337.857
262.7000	-455113	337.933
262.6000	-406589	338.011
262.5000	-403714	338.097
262.4000	-512138	338.176
262.3000	-571897	338.256
262.2000	-645848	338.323
262.1000	-753638	338.393
262.0000	-783271	338.454
261.9000	-804753	338.528
261.8000	-868401	338.602
261.7000	-930039	338.663
261.6000	-917937	338.73
261.5000	-906167	338.794
261.4000	-949769	338.864
261.3000	-911260	338.932
261.2000	-959739	339.024
261.1000	-1.03117E+006	339.119
261.0000	-972530	339.208
260.9000	-923903	339.286
260.8000	-917343	339.374
260.7000	-944993	339.47
260.6000	-904207	339.555
260.5000	-935767	339.642
260.4000	-936597	339.725
260.3000	-790346	339.8
260.2000	-710916	339.858
260.1000	-690638	339.923
260.0000	-760109	339.992
259.9000	-719546	340.049
259.8000	-694328	340.121
259.7000	-659965	340.197
259.6000	-532464	340.267
259.5000	-529483	340.343
259.4000	-575547	340.433
259.3000	-580309	340.52
259.2000	-536623	340.608
259.1000	-549531	340.698
259.0000	-540911	340.784
258.9000	-524588	340.876
258.8000	-529974	340.978
258.7000	-471967	341.07
258.6000	-410367	341.161
258.5000	-411469	341.254
258.4000	-392678	341.341
258.3000	-411588	341.432
258.2000	-420587	341.538
258.1000	-362715	341.641
258.0000	-354699	341.74
257.9000	-388795	341.838
257.8000	-465205	341.927
257.7000	-510176	342.017
257.6000	-637381	342.118
257.5000	-655388	342.218
257.4000	-656309	342.318
257.3000	-624037	342.403
257.2000	-630050	342.483
257.1000	-662985	342.566
257.0000	-746114	342.646
256.9000	-751641	342.734
256.8000	-713736	342.817
256.7000	-647097	342.911
256.6000	-711703	342.991
256.5000	-821650	343.061
256.4000	-932884	343.135
256.3000	-1.0455E+006	343.201
256.2000	-1.04496E+006	343.281
256.1000	-975535	343.376
256.0000	-923992	343.463
255.9000	-893835	343.541
255.8000	-876824	343.609
255.7000	-849116	343.698
255.6000	-811323	343.791
255.5000	-651336	343.886
255.4000	-454668	343.983
255.3000	-407585	344.065
255.2000	-388396	344.149
255.1000	-473950	344.228
255.0000	-508321	344.324
254.9000	-565530	344.409
254.8000	-619963	344.492
254.7000	-657666	344.588
254.6000	-733450	344.679
254.5000	-831423	344.773
254.4000	-861956	344.855
254.3000	-786920	344.946
254.2000	-700489	345.028
254.1000	-645047	345.119
254.0000	-562414	345.216
253.9000	-498681	345.316
253.8000	-564852	345.398
253.7000	-520533	345.486
253.6000	-554311	345.582
253.5000	-655222	345.687
253.4000	-731194	345.785
253.3000	-748205	345.887
253.2000	-649312	345.978
253.1000	-661364	346.061
253.0000	-579428	346.145
252.9000	-540807	346.231
252.8000	-541909	346.303
252.7000	-497697	346.377
252.6000	-433330	346.455
252.5000	-419999	346.542
252.4000	-452467	346.628
252.3000	-513397	346.716
252.2000	-579414	346.797
252.1000	-627334	346.889
252.0000	-657140	346.983
251.9000	-738191	347.068
251.8000	-723060	347.166
251.7000	-705228	347.255
251.6000	-745110	347.349
251.5000	-705773	347.448
251.4000	-548684	347.566
251.3000	-423894	347.684
251.2000	-293591	347.791
251.1000	-295407	347.898
251.0000	-309729	347.996
250.9000	-393023	348.104
250.8000	-374623	348.214
250.7000	-378755	348.32
250.6000	-490140	348.405
250.5000	-663405	348.48
250.4000	-827893	348.568
250.3000	-853145	348.667
250.2000	-789838	348.781
250.1000	-693017	348.888
250.0000	-623017	348.978
249.9000	-519804	349.073
249.8000	-359731	349.167
249.7000	-266557	349.272
249.6000	-208311	349.374
249.5000	-216555	349.476
249.4000	-252858	349.582
249.3000	-356787	349.677
249.2000	-441759	349.775
249.1000	-539788	349.887
249.0000	-721145	349.999
248.9000	-811835	350.106
248.8000	-881439	350.219
248.7000	-855453	350.336
248.6000	-754193	350.445
248.5000	-669938	350.554
248.4000	-615577	350.663
248.3000	-635149	350.755
248.2000	-582868	350.853
248.1000	-525978	350.966
248.0000	-436737	351.078
247.9000	-356015	351.195
247.8000	-357401	351.3
247.7000	-426331	351.393
247.6000	-456902	351.499
247.5000	-400121	351.613
247.4000	-343410	351.719
247.3000	-364744	351.812
247.2000	-481515	351.911
247.1000	-549200	352.005
247.0000	-572380	352.103
246.9000	-605243	352.216
246.8000	-585449	352.324
246.7000	-631881	352.429
246.6000	-707112	352.537
246.5000	-824950	352.657
246.4000	-863264	352.774
246.3000	-820867	352.887
246.2000	-836057	352.995
246.1000	-780580	353.115
246.0000	-765313	353.236
245.9000	-758019	353.364
245.8000	-708014	353.499
245.7000	-598940	353.636
245.6000	-562624	353.762
245.5000	-462174	353.893
245.4000	-496634	354.031
245.3000	-545205	354.162
245.2000	-595221	354.303
245.1000	-500195	354.45
245.0000	-487260	354.588
244.9000	-441031	354.719
244.8000	-332269	354.854
244.7000	-373979	354.999
244.6000	-300837	355.145
244.5000	-223529	355.289
244.4000	-214363	355.419
244.3000	-196262	355.543
244.2000	-270359	355.671
244.1000	-336502	355.809
244.0000	-435357	355.951
243.9000	-521230	356.085
243.8000	-597582	356.215
243.7000	-620600	356.351
243.6000	-708718	356.488
243.5000	-844130	356.632
243.4000	-828629	356.784
243.3000	-743905	356.932
243.2000	-708566	357.08
243.1000	-719200	357.229
243.0000	-844195	357.376
242.9000	-927328	357.526
242.8000	-892082	357.686
242.7000	-754280	357.855
242.6000	-817019	358.014
242.5000	-857644	358.17
242.4000	-892660	358.333
242.3000	-812210	358.503
242.2000	-654471	358.68
242.1000	-569273	358.855
242.0000	-572097	359.019
241.9000	-717370	359.179
241.8000	-750073	359.342
241.7000	-619952	359.513
241.6000	-668959	359.676
241.5000	-807295	359.836
241.4000	-909599	360.002
241.3000	-916156	360.185
241.2000	-827388	360.374
241.1000	-795257	360.563
241.0000	-823876	360.751
240.9000	-1.04698E+006	360.941
240.8000	-1.11181E+006	361.138
240.7000	-1.04399E+006	361.336
240.6000	-1.03036E+006	361.531
240.5000	-1.03759E+006	361.722
240.4000	-1.14542E+006	361.917
240.3000	-1.23734E+006	362.121
240.2000	-1.20991E+006	362.334
240.1000	-1.10164E+006	362.55
240.0000	-1.1569E+006	362.759
239.9000	-1.14728E+006	362.978
239.8000	-1.01033E+006	363.204
239.7000	-887186	363.428
239.6000	-726833	363.657
239.5000	-626931	363.894
239.4000	-549467	364.128
239.3000	-482611	364.358
239.2000	-362273	364.592
239.1000	-286364	364.832
239.0000	-266836	365.076
238.9000	-383381	365.323
238.8000	-617073	365.558
238.7000	-809485	365.783
238.6000	-845142	366.003
238.5000	-834039	366.234
238.4000	-718026	366.471
238.3000	-693164	366.705
238.2000	-874317	366.928
238.1000	-983912	367.152
238.0000	-895141	367.389
237.9000	-657881	367.64
237.8000	-579209	367.886
237.7000	-549849	368.13
237.6000	-587796	368.383
237.5000	-669882	368.646
237.4000	-436468	368.919
237.3000	-278869	369.182
237.2000	-212359	369.446
237.1000	-328109	369.694
237.0000	-369690	369.947
236.9000	-407150	370.21
236.8000	-505298	370.47
236.7000	-571567	370.726
236.6000	-620212	370.971
236.5000	-587149	371.231
236.4000	-638258	371.492
236.3000	-612540	371.763
236.2000	-384835	372.05
236.1000	-290210	372.327
236.0000	-138671	372.6
235.9000	-43649.9	372.865
235.8000	21800.1	373.14
235.7000	-183606	373.412
235.6000	-272997	373.688
235.5000	-407627	373.965
235.4000	-576364	374.237
235.3000	-719097	374.505
235.2000	-818735	374.78
235.1000	-846782	375.064
235.0000	-919752	375.349
234.9000	-869210	375.634
234.8000	-789599	375.923
234.7000	-736128	376.213
234.6000	-692103	376.494
234.5000	-697103	376.781
234.4000	-749623	377.075
234.3000	-849823	377.364
234.2000	-1.00633E+006	377.649
234.1000	-1.16762E+006	377.941
234.0000	-1.24987E+006	378.232
233.9000	-1.29869E+006	378.526
233.8000	-1.38153E+006	378.828
233.7000	-1.48677E+006	379.13
233.6000	-1.52292E+006	379.431
233.5000	-1.56037E+006	379.736
233.4000	-1.51235E+006	380.042
233.3000	-1.39163E+006	380.347
233.2000	-1.41193E+006	380.651
233.1000	-1.37745E+006	380.951
233.0000	-1.439E+006	381.249
232.9000	-1.39119E+006	381.547
232.8000	-1.4089E+006	381.845
232.7000	-1.4812E+006	382.145
232.6000	-1.45332E+006	382.445
232.5000	-1.53622E+006	382.747
232.4000	-1.57758E+006	383.051
232.3000	-1.67074E+006	383.362
232.2000	-1.72914E+006	383.669
232.1000	-1.85928E+006	383.976
232.0000	-1.97387E+006	384.282
231.9000	-1.7745E+006	384.596
231.8000	-1.69343E+006	384.901
231.7000	-1.71234E+006	385.209
231.6000	-1.78809E+006	385.519
231.5000	-1.83374E+006	385.819
231.4000	-1.67746E+006	386.125
231.3000	-1.40156E+006	386.433
231.2000	-1.13481E+006	386.746
231.1000	-1.1751E+006	387.05
231.0000	-1.41841E+006	387.35
230.9000	-1.52255E+006	387.658
230.8000	-1.47748E+006	387.957
230.7000	-1.42507E+006	388.261
230.6000	-1.42129E+006	388.564
230.5000	-1.50338E+006	388.875
230.4000	-1.67822E+006	389.181
230.3000	-1.71171E+006	389.5
230.2000	-1.60243E+006	389.819
230.1000	-1.59605E+006	390.142
230.0000	-1.48572E+006	390.466
229.9000	-1.43212E+006	390.782
229.8000	-1.43199E+006	391.099
229.7000	-1.371E+006	391.405
229.6000	-1.26859E+006	391.71
229.5000	-1.35727E+006	391.997
229.4000	-1.5615E+006	392.275
229.3000	-1.64294E+006	392.55
229.2000	-1.76861E+006	392.816
229.1000	-1.90572E+006	393.083
229.0000	-1.95689E+006	393.355
228.9000	-2.1975E+006	393.63
228.8000	-2.39148E+006	393.908
228.7000	-2.46437E+006	394.204
228.6000	-2.48069E+006	394.51
228.5000	-2.53474E+006	394.813
228.4000	-2.45035E+006	395.135
228.3000	-2.36211E+006	395.465
228.2000	-2.31196E+006	395.793
228.1000	-2.28873E+006	396.125
228.0000	-2.27707E+006	396.452
227.9000	-2.36525E+006	396.768
227.8000	-2.30367E+006	397.081
227.7000	-2.05773E+006	397.41
227.6000	-2.08539E+006	397.722
227.5000	-2.20381E+006	398.024
227.4000	-2.2718E+006	398.323
227.3000	-2.23972E+006	398.626
227.2000	-2.03242E+006	398.929
227.1000	-1.90748E+006	399.228
227.0000	-1.88319E+006	399.524
226.9000	-1.83897E+006	399.81
226.8000	-1.82034E+006	400.102
226.7000	-1.68958E+006	400.399
226.6000	-1.55822E+006	400.694
226.5000	-1.61437E+006	400.975
226.4000	-1.77946E+006	401.246
226.3000	-1.86734E+006	401.519
226.2000	-1.9758E+006	401.791
226.1000	-2.08748E+006	402.063
226.0000	-1.99772E+006	402.334
225.9000	-1.95448E+006	402.6
225.8000	-2.13218E+006	402.858
225.7000	-2.17731E+006	403.122
225.6000	-2.29628E+006	403.389
225.5000	-2.28379E+006	403.657
225.4000	-2.19526E+006	403.928
225.3000	-2.1822E+006	404.203
225.2000	-2.32926E+006	404.474
225.1000	-2.59603E+006	404.738
225.0000	-2.597E+006	405.004
224.9000	-2.42101E+006	405.274
224.8000	-2.27209E+006	405.536
224.7000	-2.42577E+006	405.789
224.6000	-2.5869E+006	406.042
224.5000	-2.48704E+006	406.296
224.4000	-2.38643E+006	406.547
224.3000	-2.34944E+006	406.793
224.2000	-2.31243E+006	407.044
224.1000	-2.45152E+006	407.291
224.0000	-2.45338E+006	407.545
223.9000	-2.36603E+006	407.802
223.8000	-2.37381E+006	408.051
223.7000	-2.56085E+006	408.297
223.6000	-2.59646E+006	408.549
223.5000	-2.48116E+006	408.809
223.4000	-2.39544E+006	409.062
223.3000	-2.40721E+006	409.3
223.2000	-2.50001E+006	409.534
223.1000	-2.6296E+006	409.77
223.0000	-2.35633E+006	410.018
222.9000	-2.06267E+006	410.264
222.8000	-1.97505E+006	410.502
222.7000	-2.19616E+006	410.727
222.6000	-2.35973E+006	410.954
222.5000	-2.26239E+006	411.194
222.4000	-2.20012E+006	411.424
222.3000	-2.37068E+006	411.652
222.2000	-2.56829E+006	411.873
222.1000	-2.83543E+006	412.09
222.0000	-2.8531E+006	412.31
221.9000	-2.88071E+006	412.522
221.8000	-2.78141E+006	412.74
221.7000	-2.93842E+006	412.951
221.6000	-2.94656E+006	413.171
221.5000	-2.54939E+006	413.399
221.4000	-2.36867E+006	413.615
221.3000	-2.34158E+006	413.828
221.2000	-2.43849E+006	414.04
221.1000	-2.4002E+006	414.261
221.0000	-2.39075E+006	414.476
220.9000	-2.3545E+006	414.69
220.8000	-2.3819E+006	414.896
220.7000	-2.67958E+006	415.093
220.6000	-2.87939E+006	415.294
220.5000	-2.83545E+006	415.507
220.4000	-2.86978E+006	415.711
220.3000	-2.80154E+006	415.914
220.2000	-2.85796E+006	416.118
220.1000	-2.86232E+006	416.318
220.0000	-2.89145E+006	416.523
219.9000	-2.77816E+006	416.736
219.8000	-2.62755E+006	416.944
219.7000	-2.71676E+006	417.145
219.6000	-2.8144E+006	417.339
219.5000	-2.89385E+006	417.541
219.4000	-2.91041E+006	417.743
219.3000	-3.00458E+006	417.939
219.2000	-2.97621E+006	418.138
219.1000	-2.95043E+006	418.332
219.0000	-2.77431E+006	418.534
218.9000	-2.56095E+006	418.728
218.8000	-2.15562E+006	418.932
218.7000	-1.93774E+006	419.127
218.6000	-1.78313E+006	419.318
218.5000	-1.5962E+006	419.507
218.4000	-1.36156E+006	419.7
218.3000	-1.3691E+006	419.883
218.2000	-1.46234E+006	420.065
218.1000	-1.74702E+006	420.244
218.0000	-1.83926E+006	420.432
217.9000	-1.88292E+006	420.615
217.8000	-1.89221E+006	420.793
217.7000	-1.90392E+006	420.976
217.6000	-2.13606E+006	421.154
217.5000	-2.13941E+006	421.341
217.4000	-2.22489E+006	421.518
217.3000	-2.33227E+006	421.693
217.2000	-2.46298E+006	421.868
217.1000	-2.54855E+006	422.044
217.0000	-2.57696E+006	422.219
216.9000	-2.52574E+006	422.402
216.8000	-2.16872E+006	422.588
216.7000	-2.16506E+006	422.76
216.6000	-2.20589E+006	422.935
216.5000	-1.84789E+006	423.121
216.4000	-1.74292E+006	423.296
216.3000	-1.81624E+006	423.463
216.2000	-1.80598E+006	423.642
216.1000	-1.71608E+006	423.815
216.0000	-1.85014E+006	423.985
215.9000	-1.89746E+006	424.156
215.8000	-1.58291E+006	424.335
215.7000	-1.65255E+006	424.513
215.6000	-1.81968E+006	424.684
215.5000	-1.71264E+006	424.867
215.4000	-1.70929E+006	425.041
215.3000	-1.95978E+006	425.209
215.2000	-2.08625E+006	425.377
215.1000	-2.26975E+006	425.552
215.0000	-2.58247E+006	425.725
214.9000	-2.7764E+006	425.896
214.8000	-2.64061E+006	426.077
214.7000	-2.48531E+006	426.26
214.6000	-2.45578E+006	426.439
214.5000	-2.46716E+006	426.621
214.4000	-2.40087E+006	426.805
214.3000	-2.18038E+006	426.994
214.2000	-1.90738E+006	427.18
214.1000	-1.68785E+006	427.367
214.0000	-1.83745E+006	427.542
213.9000	-1.88709E+006	427.72
213.8000	-1.72161E+006	427.907
213.7000	-1.47547E+006	428.098
213.6000	-1.24143E+006	428.29
213.5000	-1.3484E+006	428.471
213.4000	-1.52117E+006	428.654
213.3000	-1.68338E+006	428.838
213.2000	-1.56517E+006	429.032
213.1000	-1.55045E+006	429.229
213.0000	-1.82654E+006	429.417
212.9000	-2.03876E+006	429.608
212.8000	-2.18884E+006	429.792
212.7000	-2.3167E+006	429.981
212.6000	-2.25165E+006	430.177
212.5000	-2.11397E+006	430.375
212.4000	-2.22663E+006	430.569
212.3000	-2.21632E+006	430.757
212.2000	-2.10797E+006	430.953
212.1000	-1.99348E+006	431.15
212.0000	-1.83318E+006	431.356
211.9000	-1.79038E+006	431.566
211.8000	-1.826E+006	431.767
211.7000	-1.97328E+006	431.967
211.6000	-1.85543E+006	432.174
211.5000	-1.89044E+006	432.379
211.4000	-2.09517E+006	432.585
211.3000	-2.29677E+006	432.794
211.2000	-2.24039E+006	433.006
211.1000	-1.93973E+006	433.223
211.0000	-1.95885E+006	433.44
210.9000	-1.90435E+006	433.656
210.8000	-1.89478E+006	433.875
210.7000	-1.87403E+006	434.103
210.6000	-1.58338E+006	434.333
210.5000	-1.23563E+006	434.567
210.4000	-1.37202E+006	434.792
210.3000	-1.62161E+006	435.024
210.2000	-1.68844E+006	435.252
210.1000	-1.76032E+006	435.49
210.0000	-1.78163E+006	435.729
209.9000	-1.8243E+006	435.967
209.8000	-1.94023E+006	436.201
209.7000	-2.35643E+006	436.43
209.6000	-2.68778E+006	436.66
209.5000	-2.82809E+006	436.892
209.4000	-3.04535E+006	437.124
209.3000	-3.2223E+006	437.357
209.2000	-3.27459E+006	437.595
209.1000	-3.30099E+006	437.837
209.0000	-3.61045E+006	438.07
208.9000	-3.55149E+006	438.32
208.8000	-3.22826E+006	438.573
208.7000	-2.98485E+006	438.825
208.6000	-2.63917E+006	439.089
208.5000	-2.24234E+006	439.357
208.4000	-2.23714E+006	439.616
208.3000	-2.62723E+006	439.862
208.2000	-2.53476E+006	440.129
208.1000	-2.47267E+006	440.396
208.0000	-2.57477E+006	440.66
207.9000	-2.83462E+006	440.923
207.8000	-3.3303E+006	441.182
207.7000	-3.42163E+006	441.45
207.6000	-3.28982E+006	441.724
207.5000	-2.96445E+006	442.007
207.4000	-2.67605E+006	442.283
207.3000	-2.56165E+006	442.557
207.2000	-2.56131E+006	442.83
207.1000	-2.29827E+006	443.11
207.0000	-2.00171E+006	443.394
206.9000	-1.75236E+006	443.674
206.8000	-1.87673E+006	443.945
206.7000	-1.9148E+006	444.221
206.6000	-1.94172E+006	444.5
206.5000	-2.01079E+006	444.78
206.4000	-2.08813E+006	445.059
206.3000	-2.08348E+006	445.345
206.2000	-2.08292E+006	445.625
206.1000	-2.34588E+006	445.899
206.0000	-2.29782E+006	446.184
205.9000	-2.37013E+006	446.466
205.8000	-2.04529E+006	446.761
205.7000	-1.88979E+006	447.056
205.6000	-1.91374E+006	447.348
205.5000	-1.786E+006	447.645
205.4000	-1.77054E+006	447.943
205.3000	-1.66806E+006	448.249
205.2000	-1.58476E+006	448.557
205.1000	-1.5267E+006	448.872
205.0000	-1.52793E+006	449.185
204.9000	-1.69578E+006	449.496
204.8000	-1.58391E+006	449.817
204.7000	-1.55782E+006	450.14
204.6000	-1.3208E+006	450.47
204.5000	-1.21464E+006	450.799
204.4000	-1.21588E+006	451.127
204.3000	-1.17211E+006	451.457
204.2000	-1.07692E+006	451.793
204.1000	-1.12852E+006	452.127
204.0000	-1.21176E+006	452.464
203.9000	-1.41484E+006	452.799
203.8000	-1.48798E+006	453.142
203.7000	-1.58614E+006	453.486
203.6000	-1.74623E+006	453.832
203.5000	-1.77221E+006	454.187
203.4000	-1.74303E+006	454.546
203.3000	-1.57319E+006	454.911
203.2000	-1.22971E+006	455.288
203.1000	-900617	455.668
203.0000	-867077	456.044
202.9000	-1.03654E+006	456.418
202.8000	-843589	456.803
202.7000	-903783	457.186
202.6000	-922748	457.573
202.5000	-1.02399E+006	457.957
202.4000	-1.03275E+006	458.344
202.3000	-1.02327E+006	458.737
202.2000	-764082	459.136
202.1000	-639778	459.54
202.0000	-865493	459.94
201.9000	-939969	460.353
201.8000	-784173	460.779
201.7000	-463330	461.211
201.6000	-366227	461.649
201.5000	-75905.7	462.095
201.4000	7378.01	462.547
201.3000	47689.2	463.002
201.2000	386993	463.471
201.1000	681598	463.942
201.0000	699046	464.408
200.9000	587815	464.882
200.8000	182473	465.36
200.7000	43390	465.852
200.6000	38610.2	466.354
200.5000	138319	466.869
200.4000	575890	467.404
200.3000	674154	467.943
200.2000	719122	468.49
200.1000	198029	469.028
200.0000	276383	469.581
199.9000	279772	470.137
199.8000	54761.6	470.685
199.7000	-71165.3	471.234
199.6000	-642390	471.77
199.5000	-1.02838E+006	472.317
199.4000	-641741	472.883
199.3000	-72949.3	473.459
199.2000	75128.3	474.038
199.1000	64587	474.621
199.0000	135351	475.223
198.9000	250999	475.842
198.8000	154224	476.475
198.7000	353559	477.135
198.6000	707753	477.817
198.5000	993172	478.522
198.4000	1.25012E+006	479.239
198.3000	1.47679E+006	479.974
198.2000	1.66834E+006	480.732
198.1000	1.8259E+006	481.517
198.0000	2.35163E+006	482.34
197.9000	2.7451E+006	483.183
197.8000	2.51767E+006	484.028
197.7000	2.10717E+006	484.887
197.6000	2.09373E+006	485.771
197.5000	2.11471E+006	486.671
197.4000	2.32796E+006	487.576
197.3000	2.60932E+006	488.474
197.2000	2.46367E+006	489.335
197.1000	2.23308E+006	490.171
197.0000	2.20617E+006	490.996
196.9000	2.60598E+006	491.827
196.8000	2.58046E+006	492.647
196.7000	2.65858E+006	493.482
196.6000	2.92806E+006	494.347
196.5000	3.18727E+006	495.244
196.4000	3.41049E+006	496.197
196.3000	3.68622E+006	497.205
196.2000	4.24123E+006	498.281
196.1000	4.13687E+006	499.407
196.0000	4.25751E+006	500.609
195.9000	4.49619E+006	501.9
195.8000	4.48177E+006	503.273
195.7000	4.33396E+006	504.758
195.6000	4.19147E+006	506.354
195.5000	4.08576E+006	508.078
195.4000	3.53443E+006	509.883
195.3000	3.2359E+006	511.756
195.2000	3.2621E+006	513.673
195.1000	2.9861E+006	515.582
195.0000	2.93249E+006	517.433
194.9000	2.75578E+006	519.159
194.8000	2.53648E+006	520.725
194.7000	2.64527E+006	522.133
194.6000	3.60517E+006	523.433
194.5000	4.91439E+006	524.644
194.4000	5.45334E+006	525.78
194.3000	5.63099E+006	526.88
194.2000	5.85446E+006	528.023
194.1000	6.20394E+006	529.286
194.0000	6.68058E+006	530.725
193.9000	6.77582E+006	532.362
193.8000	6.26487E+006	534.214
193.7000	5.79392E+006	536.335
193.6000	5.73798E+006	538.759
193.5000	5.85149E+006	541.514
193.4000	5.63332E+006	544.638
193.3000	5.11075E+006	548.121
193.2000	5.63345E+006	551.961
193.1000	6.26752E+006	556.076
193.0000	7.04795E+006	560.374
192.9000	7.61434E+006	564.729
192.8000	7.44071E+006	568.987
192.7000	7.52546E+006	573.015
192.6000	8.13381E+006	576.605
192.5000	8.61175E+006	579.63
192.4000	7.94514E+006	582.088
192.3000	6.61295E+006	584.059
192.2000	5.55747E+006	585.658
192.1000	4.77634E+006	586.987
192.0000	4.68007E+006	588.197
191.9000	4.7229E+006	589.454
191.8000	4.12693E+006	590.988
191.7000	3.91467E+006	593.027
191.6000	4.10335E+006	595.632
191.5000	4.77727E+006	598.849
191.4000	6.30758E+006	602.67
191.3000	6.71711E+006	607.101
191.2000	7.03574E+006	612.212
191.1000	7.52538E+006	617.994
191.0000	8.60793E+006	624.364
190.9000	9.5385E+006	631.173
190.8000	1.03384E+007	638.297
190.7000	1.09041E+007	645.576
190.6000	1.0071E+007	652.801
190.5000	9.20142E+006	659.764
190.4000	8.42755E+006	666.139
190.3000	6.46495E+006	671.699
190.2000	4.8436E+006	676.456
190.1000	5.06699E+006	680.516
190.0000	4.46637E+006	683.972

##### Extended Information
[Comments]
Sample name	ACE2_Erg_0.8uM
Comment
User
Division
Company	CSIR-IMTECH

[Detailed Information]
Creation date	4/9/2024 3:08 PM

Data array type	Linear data array * 2
Horizontal axis	Wavelength [nm]
Vertical axis(1)	Mol. Ellip.
Vertical axis(2)	HT [V]
Start	350 nm
End	190 nm
Data interval	0.1 nm
Data points	1601    

[Measurement Information]
Instrument Name	JASCO CD
Model Name	J-815
Serial No.	B063061168

Accessory	PTC-423S
Accessory S/N	C013945-01
  Temperature	36.88 C
  Control Sonsor	Cell
  Monitor Sensor	Cell
  Start Mode	Start immediately
  Cell Length	10 mm

Measurement date	4/9/2024 3:07 PM

Photometric Mode	CD, HT
Measure Range	350 - 190 nm
Data pitch	0.1 nm
Sensitivity	Standard
D.I.T.	1 sec
Bandwidth	1.00 nm
Start Mode	Immediately
Scanning Speed	50 nm/min
Baseline Correction	None
Shutter Control	Auto
CD Detector	PMT
PMT Voltage	Auto
Accumulations	3
Concentration	0.8 umol/L

