TITLE,D2_0.4uM
DATA TYPE,
ORIGIN,JASCO
OWNER,
DATE,24/03/11
TIME,13:00:02
SPECTROMETER/DATA SYSTEM,
LOCALE,1033
RESOLUTION,
DELTAX,-0.1
XUNITS,NANOMETERS
YUNITS,CD [mdeg]
Y2UNITS,HT [V]
FIRSTX,  350.0000
LASTX,  190.0000
NPOINTS,    1601
FIRSTY,     0.14365
MAXY,     0.84770
MINY,    -1.60202
XYDATA
350.0000,0.143648,473.217
349.9000,0.172029,472.644
349.8000,0.125538,471.774
349.7000,0.205434,470.894
349.6000,0.446178,470.263
349.5000,0.444294,469.704
349.4000,0.594377,468.829
349.3000,0.341171,468.179
349.2000,0.109532,467.618
349.1000,0.0729901,466.782
349.0000,0.399668,466.178
348.9000,0.649161,465.646
348.8000,0.496674,464.797
348.7000,0.318598,463.939
348.6000,0.0575201,463.323
348.5000,0.123491,462.801
348.4000,0.180403,461.947
348.3000,0.223545,461.291
348.2000,0.0345552,460.693
348.1000,-0.295142,459.801
348.0000,-0.132557,459.145
347.9000,0.0328479,458.567
347.8000,0.321885,457.721
347.7000,0.628857,456.864
347.6000,0.70686,456.248
347.5000,0.650761,455.737
347.4000,0.671725,454.934
347.3000,0.847699,454.343
347.2000,0.782684,453.835
347.1000,0.783951,453.087
347.0000,0.674024,452.537
346.9000,0.339213,452.058
346.8000,0.161561,451.298
346.7000,0.110582,450.53
346.6000,0.257623,449.968
346.5000,0.198338,449.223
346.4000,0.0440217,448.462
346.3000,-0.0410187,447.866
346.2000,0.0578205,447.08
346.1000,0.325031,446.286
346.0000,0.371199,445.697
345.9000,0.34428,445.183
345.8000,0.123462,444.392
345.7000,0.0304242,443.809
345.6000,0.0509482,443.315
345.5000,0.161047,442.588
345.4000,0.104195,442.06
345.3000,0.0744576,441.612
345.2000,0.0494585,440.924
345.1000,0.0157995,440.233
345.0000,0.107757,439.734
344.9000,0.125237,439.068
344.8000,0.130279,438.379
344.7000,0.105359,437.853
344.6000,0.0936259,437.191
344.5000,0.0821298,436.515
344.4000,-0.006943,435.998
344.3000,0.0350206,435.292
344.2000,0.0174749,434.59
344.1000,0.04815,434.069
344.0000,-0.0249733,433.425
343.9000,-0.0980416,432.777
343.8000,-0.02282,432.298
343.7000,-0.0871572,431.879
343.6000,0.0252236,431.217
343.5000,0.0230496,430.762
343.4000,-0.0793705,430.359
343.3000,0.0822382,429.734
343.2000,0.183725,429.265
343.1000,0.351236,428.847
343.0000,0.211243,428.217
342.9000,0.194054,427.574
342.8000,0.275438,427.104
342.7000,0.189276,426.497
342.6000,0.329037,425.889
342.5000,0.31233,425.434
342.4000,0.344089,424.843
342.3000,0.404214,424.251
342.2000,0.463384,423.803
342.1000,0.521787,423.249
342.0000,0.478473,422.691
341.9000,0.515516,422.294
341.8000,0.46417,421.75
341.7000,0.260932,421.197
341.6000,0.158623,420.799
341.5000,0.136781,420.273
341.4000,0.150664,419.739
341.3000,0.218012,419.332
341.2000,0.217345,418.775
341.1000,0.174151,418.203
341.0000,0.161407,417
340.9000,0.259446,416.421
340.8000,0.219444,415.825
340.7000,0.0386937,415.362
340.6000,0.00732562,414.792
340.5000,-0.0746244,414.219
340.4000,-0.108199,413.791
340.3000,-0.122704,413.25
340.2000,-0.0910574,413.399
340.1000,-0.00248332,413.11
340.0000,0.0796262,412.642
339.9000,0.21052,412.173
339.8000,0.210694,411.826
339.7000,0.113787,411.381
339.6000,0.0937716,410.93
339.5000,0.147769,410.612
339.4000,0.225114,410.157
339.3000,0.095763,409.675
339.2000,0.048361,409.142
339.1000,-0.0632633,408.654
339.0000,0.0208349,408.158
338.9000,0.0972223,407.61
338.8000,0.0723951,407.106
338.7000,0.0188794,406.589
338.6000,-0.0173237,406.016
338.5000,-0.0716512,405.506
338.4000,-0.153122,405.126
338.3000,-0.107454,404.68
338.2000,-0.0809055,404.233
338.1000,-0.128721,403.909
338.0000,0.0416437,403.483
337.9000,0.0400719,403.048
337.8000,-0.0639993,402.753
337.7000,-0.0176401,402.379
337.6000,0.0908365,401.751
337.5000,0.222224,401.449
337.4000,0.199127,401.041
337.3000,0.105987,400.613
337.2000,-0.0189398,400.142
337.1000,0.0123752,399.723
337.0000,0.163741,399.299
336.9000,0.228914,398.839
336.8000,0.185746,398.657
336.7000,0.114602,398.249
336.6000,0.110913,397.813
336.5000,0.135592,397.422
336.4000,0.147999,397.148
336.3000,0.096261,396.752
336.2000,-0.0159044,396.35
336.1000,-0.0913145,396.058
336.0000,-0.138019,395.683
335.9000,-0.122136,395.137
335.8000,-0.278865,394.7
335.7000,-0.302935,394.306
335.6000,-0.202103,393.905
335.5000,-0.176686,393.492
335.4000,-0.130113,393.134
335.3000,-0.035096,392.773
335.2000,0.00784317,392.388
335.1000,-0.0454539,392.171
335.0000,0.0593943,391.974
334.9000,0.0537972,391.642
334.8000,0.00848154,391.3
334.7000,-0.119653,390.925
334.6000,-0.291226,390.594
334.5000,-0.423147,390.254
334.4000,-0.642029,389.861
334.3000,-0.718049,389.507
334.2000,-0.755521,389.143
334.1000,-0.704572,388.754
334.0000,-0.644725,388.413
333.9000,-0.532727,388.168
333.8000,-0.338602,387.841
333.7000,-0.226623,387.501
333.6000,-0.0883898,387.136
333.5000,0.0677177,386.815
333.4000,0.25599,386.496
333.3000,0.344322,386.153
333.2000,0.40598,385.855
333.1000,0.49416,385.555
333.0000,0.485534,385.239
332.9000,0.372491,384.955
332.8000,0.3383,384.617
332.7000,0.287426,384.315
332.6000,0.171301,384
332.5000,0.0994701,383.656
332.4000,0.0514566,383.35
332.3000,-0.145211,383.032
332.2000,-0.261063,382.673
332.1000,-0.148737,382.347
332.0000,-0.193134,382.004
331.9000,-0.199487,381.713
331.8000,-0.114968,381.423
331.7000,-0.0296579,381.11
331.6000,-0.0686157,380.822
331.5000,-0.00554923,380.421
331.4000,0.129975,380.107
331.3000,0.154042,379.824
331.2000,0.260655,379.519
331.1000,0.352309,379.252
331.0000,0.263391,378.974
330.9000,0.168786,378.689
330.8000,0.155964,378.439
330.7000,0.132676,378.134
330.6000,0.138075,377.863
330.5000,0.0932136,377.59
330.4000,0.00113894,377.308
330.3000,-0.00565337,377.064
330.2000,0.110766,376.697
330.1000,0.161324,376.39
330.0000,0.132463,376.104
329.9000,0.138356,375.812
329.8000,0.107074,375.563
329.7000,0.106946,375.2
329.6000,0.148731,374.899
329.5000,0.0395636,374.616
329.4000,-0.0578436,374.344
329.3000,-0.0710385,374.111
329.2000,-0.00671362,373.762
329.1000,0.136656,373.489
329.0000,0.18108,373.248
328.9000,0.257305,373.036
328.8000,0.314856,372.864
328.7000,0.315724,372.547
328.6000,0.349504,372.284
328.5000,0.263409,372.042
328.4000,0.224952,371.825
328.3000,0.0401786,371.643
328.2000,-0.00182588,371.316
328.1000,-0.10603,371.017
328.0000,-0.166658,370.727
327.9000,-0.217679,370.48
327.8000,-0.250904,370.285
327.7000,-0.240239,369.969
327.6000,-0.232057,369.691
327.5000,-0.273215,369.429
327.4000,-0.313871,369.183
327.3000,-0.421578,368.994
327.2000,-0.617525,368.696
327.1000,-0.689156,368.439
327.0000,-0.643948,368.202
326.9000,-0.63084,367.99
326.8000,-0.67058,367.82
326.7000,-0.669438,367.524
326.6000,-0.647372,367.279
326.5000,-0.501702,367.063
326.4000,-0.298368,366.845
326.3000,-0.143817,366.665
326.2000,0.0104561,366.394
326.1000,0.0245195,366.151
326.0000,0.046487,365.855
325.9000,0.0507156,365.647
325.8000,0.0250634,365.489
325.7000,-0.0360899,365.285
325.6000,-0.132433,365.13
325.5000,-0.106855,364.851
325.4000,-0.253714,364.624
325.3000,-0.32226,364.432
325.2000,-0.357461,364.214
325.1000,-0.386879,364.009
325.0000,-0.395806,363.711
324.9000,-0.367399,363.443
324.8000,-0.305775,363.138
324.7000,-0.368538,362.936
324.6000,-0.333343,362.791
324.5000,-0.277414,362.533
324.4000,-0.260969,362.326
324.3000,-0.264028,362.126
324.2000,-0.220131,361.988
324.1000,-0.241946,361.747
324.0000,-0.312267,361.538
323.9000,-0.357951,361.345
323.8000,-0.398174,361.158
323.7000,-0.349805,361.05
323.6000,-0.341504,360.78
323.5000,-0.264016,360.518
323.4000,-0.164569,360.239
323.3000,-0.160912,360.047
323.2000,-0.156242,359.896
323.1000,-0.113779,359.616
323.0000,-0.13287,359.325
322.9000,-0.224894,358.994
322.8000,-0.278883,358.802
322.7000,-0.270844,358.556
322.6000,-0.370232,358.313
322.5000,-0.381296,358.086
322.4000,-0.30244,357.858
322.3000,-0.289772,357.71
322.2000,-0.28797,357.441
322.1000,-0.291597,357.179
322.0000,-0.272216,356.935
321.9000,-0.269386,356.777
321.8000,-0.264223,356.489
321.7000,-0.229234,356.194
321.6000,-0.218524,355.898
321.5000,-0.288595,355.606
321.4000,-0.296477,355.446
321.3000,-0.324721,355.226
321.2000,-0.320673,355.01
321.1000,-0.35087,354.8
321.0000,-0.360957,354.727
320.9000,-0.456943,354.586
320.8000,-0.50881,354.445
320.7000,-0.47629,354.334
320.6000,-0.495311,354.223
320.5000,-0.51318,354.195
320.4000,-0.522546,354.059
320.3000,-0.468034,353.911
320.2000,-0.424983,353.757
320.1000,-0.329003,353.701
320.0000,-0.242294,353.521
319.9000,-0.190883,353.316
319.8000,-0.17888,353.098
319.7000,-0.120079,352.876
319.6000,-0.113861,352.615
319.5000,-0.210531,352.398
319.4000,-0.289729,352.18
319.3000,-0.304872,351.962
319.2000,-0.30215,351.861
319.1000,-0.318837,351.666
319.0000,-0.33474,351.455
318.9000,-0.379395,351.257
318.8000,-0.491508,351.155
318.7000,-0.457607,350.967
318.6000,-0.439511,350.768
318.5000,-0.481706,350.585
318.4000,-0.497079,350.396
318.3000,-0.509007,350.165
318.2000,-0.555493,349.987
318.1000,-0.574145,349.801
318.0000,-0.497206,349.625
317.9000,-0.524029,349.548
317.8000,-0.582577,349.391
317.7000,-0.590646,349.214
317.6000,-0.666095,349.026
317.5000,-0.768989,348.942
317.4000,-0.844913,348.787
317.3000,-0.84446,348.627
317.2000,-0.875832,348.455
317.1000,-0.815625,348.28
317.0000,-0.673077,348.063
316.9000,-0.562649,347.887
316.8000,-0.459531,347.728
316.7000,-0.390618,347.559
316.6000,-0.288803,347.364
316.5000,-0.124923,347.21
316.4000,-0.0240026,347.065
316.3000,0.0263248,346.902
316.2000,-0.0221209,346.71
316.1000,-0.0962655,346.567
316.0000,-0.145465,346.414
315.9000,-0.206253,346.249
315.8000,-0.301081,346.16
315.7000,-0.380277,345.994
315.6000,-0.482936,345.818
315.5000,-0.579882,345.649
315.4000,-0.601679,345.574
315.3000,-0.658063,345.403
315.2000,-0.737569,345.222
315.1000,-0.774645,345.056
315.0000,-0.792658,344.893
314.9000,-0.838884,344.71
314.8000,-0.819008,344.563
314.7000,-0.778552,344.416
314.6000,-0.814861,344.25
314.5000,-0.812479,344.084
314.4000,-0.742949,343.968
314.3000,-0.622324,343.844
314.2000,-0.562582,343.707
314.1000,-0.514918,343.524
314.0000,-0.443536,343.379
313.9000,-0.448936,343.245
313.8000,-0.429695,343.11
313.7000,-0.342251,342.91
313.6000,-0.259429,342.737
313.5000,-0.296639,342.571
313.4000,-0.318662,342.4
313.3000,-0.290401,342.225
313.2000,-0.309506,342.086
313.1000,-0.372935,341.942
313.0000,-0.385976,341.791
312.9000,-0.451003,341.635
312.8000,-0.574349,341.528
312.7000,-0.657984,341.406
312.6000,-0.662585,341.283
312.5000,-0.655738,341.108
312.4000,-0.628288,340.962
312.3000,-0.607528,340.812
312.2000,-0.581205,340.65
312.1000,-0.499954,340.431
312.0000,-0.461149,340.235
311.9000,-0.431266,340.046
311.8000,-0.406657,339.79
311.7000,-0.39075,339.606
311.6000,-0.430167,339.459
311.5000,-0.43569,339.32
311.4000,-0.413308,339.102
311.3000,-0.383081,338.968
311.2000,-0.349645,338.88
311.1000,-0.320227,338.802
311.0000,-0.251194,338.691
310.9000,-0.285723,338.603
310.8000,-0.307976,338.513
310.7000,-0.370818,338.428
310.6000,-0.377113,338.297
310.5000,-0.446541,338.194
310.4000,-0.523451,338.096
310.3000,-0.484157,338.001
310.2000,-0.484224,337.908
310.1000,-0.488177,337.84
310.0000,-0.417316,337.773
309.9000,-0.426005,337.702
309.8000,-0.411518,337.634
309.7000,-0.357601,337.583
309.6000,-0.322973,337.531
309.5000,-0.342016,337.402
309.4000,-0.435572,337.302
309.3000,-0.468857,337.201
309.2000,-0.515193,337.108
309.1000,-0.512561,336.923
309.0000,-0.498098,336.779
308.9000,-0.529033,336.652
308.8000,-0.555043,336.527
308.7000,-0.523309,336.413
308.6000,-0.515588,336.323
308.5000,-0.459165,336.227
308.4000,-0.447159,336.085
308.3000,-0.484255,336.002
308.2000,-0.442646,335.929
308.1000,-0.419565,335.872
308.0000,-0.419372,335.75
307.9000,-0.4665,335.649
307.8000,-0.510573,335.546
307.7000,-0.587255,335.455
307.6000,-0.655262,335.329
307.5000,-0.698719,335.178
307.4000,-0.736764,335.05
307.3000,-0.792807,334.899
307.2000,-0.861915,334.793
307.1000,-0.891174,334.685
307.0000,-0.940824,334.589
306.9000,-0.940726,334.461
306.8000,-0.863122,334.392
306.7000,-0.780805,334.343
306.6000,-0.736125,334.247
306.5000,-0.74537,334.166
306.4000,-0.667714,334.073
306.3000,-0.609171,334.003
306.2000,-0.551861,333.868
306.1000,-0.49922,333.759
306.0000,-0.519621,333.628
305.9000,-0.574718,333.521
305.8000,-0.632659,333.432
305.7000,-0.628503,333.337
305.6000,-0.645021,333.261
305.5000,-0.677911,333.154
305.4000,-0.681204,333.093
305.3000,-0.656658,333.028
305.2000,-0.666083,332.982
305.1000,-0.69907,332.891
305.0000,-0.668335,332.79
304.9000,-0.677866,332.721
304.8000,-0.669806,332.598
304.7000,-0.690518,332.498
304.6000,-0.691724,332.383
304.5000,-0.748547,332.266
304.4000,-0.721379,332.158
304.3000,-0.691759,332.059
304.2000,-0.656239,332.003
304.1000,-0.594968,331.92
304.0000,-0.586145,331.876
303.9000,-0.555471,331.819
303.8000,-0.560667,331.74
303.7000,-0.563185,331.686
303.6000,-0.589351,331.6
303.5000,-0.628721,331.534
303.4000,-0.633119,331.429
303.3000,-0.675711,331.313
303.2000,-0.687389,331.212
303.1000,-0.680943,331.123
303.0000,-0.688852,331.073
302.9000,-0.667587,331.004
302.8000,-0.620777,330.93
302.7000,-0.541731,330.868
302.6000,-0.535625,330.801
302.5000,-0.601296,330.77
302.4000,-0.660999,330.711
302.3000,-0.680349,330.621
302.2000,-0.65467,330.537
302.1000,-0.668748,330.434
302.0000,-0.765366,330.365
301.9000,-0.858813,330.278
301.8000,-0.936478,330.193
301.7000,-0.895256,330.123
301.6000,-0.831025,330.046
301.5000,-0.846186,330.008
301.4000,-0.874508,329.949
301.3000,-0.862266,329.881
301.2000,-0.809402,329.827
301.1000,-0.771003,329.762
301.0000,-0.708488,329.726
300.9000,-0.667874,329.657
300.8000,-0.673028,329.577
300.7000,-0.721671,329.504
300.6000,-0.722465,329.424
300.5000,-0.738526,329.359
300.4000,-0.760526,329.304
300.3000,-0.749244,329.236
300.2000,-0.729042,329.177
300.1000,-0.767564,329.12
300.0000,-0.843036,329.059
299.9000,-0.895886,329.008
299.8000,-0.855818,328.954
299.7000,-0.854898,328.89
299.6000,-0.790107,328.836
299.5000,-0.780738,328.774
299.4000,-0.786977,328.722
299.3000,-0.746403,328.656
299.2000,-0.65484,328.604
299.1000,-0.517102,328.566
299.0000,-0.501951,328.509
298.9000,-0.5306,328.462
298.8000,-0.61947,328.422
298.7000,-0.655165,328.368
298.6000,-0.720793,328.324
298.5000,-0.810387,328.269
298.4000,-0.903992,328.21
298.3000,-1.01703,328.156
298.2000,-1.05737,328.094
298.1000,-1.07587,328.036
298.0000,-1.05395,327.984
297.9000,-1.07721,327.931
297.8000,-1.06548,327.863
297.7000,-1.00119,327.816
297.6000,-0.9652,327.774
297.5000,-0.963129,327.713
297.4000,-0.940073,327.673
297.3000,-0.943825,327.632
297.2000,-0.939841,327.571
297.1000,-0.948818,327.529
297.0000,-0.931716,327.48
296.9000,-0.89996,327.419
296.8000,-0.88988,327.374
296.7000,-0.854208,327.333
296.6000,-0.834015,327.299
296.5000,-0.812078,327.259
296.4000,-0.795147,327.224
296.3000,-0.735077,327.195
296.2000,-0.714255,327.16
296.1000,-0.747545,327.124
296.0000,-0.769758,327.093
295.9000,-0.750431,327.051
295.8000,-0.730608,326.987
295.7000,-0.698252,326.943
295.6000,-0.655457,326.902
295.5000,-0.629075,326.844
295.4000,-0.617437,326.78
295.3000,-0.59534,326.745
295.2000,-0.565699,326.691
295.1000,-0.540692,326.629
295.0000,-0.55634,326.596
294.9000,-0.59056,326.551
294.8000,-0.644085,326.487
294.7000,-0.718543,326.448
294.6000,-0.739914,326.409
294.5000,-0.753212,326.355
294.4000,-0.798922,326.317
294.3000,-0.818043,326.286
294.2000,-0.826569,326.236
294.1000,-0.770938,326.201
294.0000,-0.753343,326.18
293.9000,-0.729567,326.132
293.8000,-0.722282,326.099
293.7000,-0.751472,326.073
293.6000,-0.761467,326.017
293.5000,-0.755042,325.953
293.4000,-0.742548,325.917
293.3000,-0.743755,325.865
293.2000,-0.728668,325.808
293.1000,-0.687974,325.781
293.0000,-0.659586,325.737
292.9000,-0.696869,325.687
292.8000,-0.662231,325.672
292.7000,-0.607622,325.652
292.6000,-0.605834,325.619
292.5000,-0.582937,325.572
292.4000,-0.59087,325.543
292.3000,-0.627537,325.496
292.2000,-0.609988,325.449
292.1000,-0.598314,325.42
292.0000,-0.64115,325.376
291.9000,-0.698671,325.322
291.8000,-0.743196,325.275
291.7000,-0.863349,325.253
291.6000,-0.859671,325.213
291.5000,-0.793205,325.169
291.4000,-0.778579,325.145
291.3000,-0.749112,325.095
291.2000,-0.641538,325.029
291.1000,-0.532986,324.968
291.0000,-0.445879,324.922
290.9000,-0.379985,324.854
290.8000,-0.36371,324.769
290.7000,-0.427973,324.671
290.6000,-0.501467,324.565
290.5000,-0.567323,324.439
290.4000,-0.668542,324.307
290.3000,-0.787045,324.189
290.2000,-0.875165,324.05
290.1000,-0.910742,323.903
290.0000,-0.896271,323.772
289.9000,-0.812088,323.685
289.8000,-0.802673,323.603
289.7000,-0.788048,323.543
289.6000,-0.791469,323.52
289.5000,-0.764829,323.537
289.4000,-0.734237,323.574
289.3000,-0.693641,323.641
289.2000,-0.664012,323.725
289.1000,-0.741418,323.823
289.0000,-0.790648,323.914
288.9000,-0.825585,324.009
288.8000,-0.825422,324.095
288.7000,-0.795218,324.173
288.6000,-0.785715,324.229
288.5000,-0.809803,324.271
288.4000,-0.796665,324.3
288.3000,-0.74058,324.32
288.2000,-0.686368,324.323
288.1000,-0.661357,324.314
288.0000,-0.689785,324.293
287.9000,-0.69435,324.259
287.8000,-0.736082,324.238
287.7000,-0.671707,324.216
287.6000,-0.679284,324.197
287.5000,-0.730045,324.16
287.4000,-0.767393,324.14
287.3000,-0.822528,324.121
287.2000,-0.786238,324.105
287.1000,-0.793979,324.09
287.0000,-0.809662,324.054
286.9000,-0.819944,324.032
286.8000,-0.832558,324.016
286.7000,-0.845968,323.999
286.6000,-0.90225,323.97
286.5000,-0.910388,323.96
286.4000,-0.924622,323.954
286.3000,-0.937482,323.952
286.2000,-0.933305,323.948
286.1000,-0.982209,323.936
286.0000,-1.0273,323.935
285.9000,-1.04638,323.929
285.8000,-1.02319,323.926
285.7000,-0.99265,323.904
285.6000,-0.917586,323.887
285.5000,-0.87844,323.886
285.4000,-0.876801,323.882
285.3000,-0.862,323.884
285.2000,-0.910486,323.862
285.1000,-0.943577,323.844
285.0000,-0.921684,323.849
284.9000,-0.922979,323.848
284.8000,-0.935958,323.853
284.7000,-0.935466,323.832
284.6000,-0.910371,323.817
284.5000,-0.853408,323.824
284.4000,-0.80761,323.832
284.3000,-0.754319,323.845
284.2000,-0.747041,323.833
284.1000,-0.747878,323.824
284.0000,-0.739864,323.805
283.9000,-0.732674,323.809
283.8000,-0.754235,323.821
283.7000,-0.782174,323.808
283.6000,-0.830821,323.792
283.5000,-0.857328,323.775
283.4000,-0.866922,323.763
283.3000,-0.817379,323.772
283.2000,-0.856718,323.781
283.1000,-0.90245,323.78
283.0000,-0.86757,323.772
282.9000,-0.898807,323.765
282.8000,-0.872361,323.76
282.7000,-0.832287,323.771
282.6000,-0.801004,323.786
282.5000,-0.824192,323.788
282.4000,-0.77523,323.787
282.3000,-0.711395,323.786
282.2000,-0.696662,323.78
282.1000,-0.708132,323.794
282.0000,-0.75159,323.809
281.9000,-0.825989,323.812
281.8000,-0.874947,323.807
281.7000,-0.911674,323.801
281.6000,-0.945598,323.798
281.5000,-1.03158,323.792
281.4000,-1.08575,323.811
281.3000,-1.09633,323.817
281.2000,-1.02054,323.815
281.1000,-0.972433,323.813
281.0000,-0.950004,323.812
280.9000,-0.928541,323.809
280.8000,-0.90374,323.8
280.7000,-0.917084,323.797
280.6000,-0.901036,323.802
280.5000,-0.879675,323.793
280.4000,-0.937413,323.785
280.3000,-0.974017,323.773
280.2000,-1.00834,323.762
280.1000,-1.02924,323.753
280.0000,-1.01717,323.744
279.9000,-0.988738,323.732
279.8000,-0.944984,323.71
279.7000,-0.912125,323.703
279.6000,-0.906261,323.693
279.5000,-0.862746,323.693
279.4000,-0.848289,323.693
279.3000,-0.850551,323.693
279.2000,-0.903721,323.694
279.1000,-0.936707,323.697
279.0000,-0.953514,323.701
278.9000,-0.983937,323.699
278.8000,-0.980037,323.71
278.7000,-0.976332,323.719
278.6000,-0.914317,323.731
278.5000,-0.889871,323.74
278.4000,-0.820534,323.754
278.3000,-0.786853,323.77
278.2000,-0.718609,323.788
278.1000,-0.65417,323.798
278.0000,-0.601263,323.794
277.9000,-0.570494,323.787
277.8000,-0.604999,323.777
277.7000,-0.665809,323.77
277.6000,-0.706403,323.78
277.5000,-0.71632,323.788
277.4000,-0.752047,323.795
277.3000,-0.808019,323.804
277.2000,-0.81283,323.819
277.1000,-0.858185,323.834
277.0000,-0.831544,323.851
276.9000,-0.726479,323.867
276.8000,-0.650877,323.869
276.7000,-0.613087,323.869
276.6000,-0.641199,323.87
276.5000,-0.713321,323.868
276.4000,-0.81342,323.866
276.3000,-0.819642,323.866
276.2000,-0.826631,323.869
276.1000,-0.846669,323.877
276.0000,-0.867214,323.904
275.9000,-0.879134,323.925
275.8000,-0.847739,323.942
275.7000,-0.824348,323.964
275.6000,-0.767369,323.986
275.5000,-0.791986,324.006
275.4000,-0.829676,324.024
275.3000,-0.886826,324.042
275.2000,-0.907021,324.043
275.1000,-0.836615,324.045
275.0000,-0.853472,324.047
274.9000,-0.833639,324.055
274.8000,-0.790361,324.06
274.7000,-0.761142,324.067
274.6000,-0.705883,324.077
274.5000,-0.696424,324.084
274.4000,-0.718132,324.091
274.3000,-0.754243,324.104
274.2000,-0.780334,324.118
274.1000,-0.768415,324.134
274.0000,-0.776944,324.145
273.9000,-0.731329,324.16
273.8000,-0.699096,324.172
273.7000,-0.634829,324.184
273.6000,-0.584584,324.194
273.5000,-0.560333,324.203
273.4000,-0.583505,324.212
273.3000,-0.642099,324.222
273.2000,-0.66314,324.234
273.1000,-0.698937,324.249
273.0000,-0.711342,324.26
272.9000,-0.737828,324.275
272.8000,-0.767406,324.289
272.7000,-0.766043,324.308
272.6000,-0.743419,324.325
272.5000,-0.708255,324.343
272.4000,-0.670424,324.362
272.3000,-0.635019,324.378
272.2000,-0.636926,324.4
272.1000,-0.626859,324.418
272.0000,-0.583694,324.435
271.9000,-0.553867,324.452
271.8000,-0.521824,324.469
271.7000,-0.466059,324.486
271.6000,-0.399576,324.498
271.5000,-0.392538,324.508
271.4000,-0.384639,324.517
271.3000,-0.454779,324.524
271.2000,-0.51901,324.536
271.1000,-0.574183,324.546
271.0000,-0.617684,324.552
270.9000,-0.697375,324.535
270.8000,-0.718687,324.519
270.7000,-0.731666,324.508
270.6000,-0.732605,324.501
270.5000,-0.694672,324.497
270.4000,-0.695039,324.492
270.3000,-0.689577,324.491
270.2000,-0.709907,324.484
270.1000,-0.666281,324.497
270.0000,-0.680224,324.514
269.9000,-0.725632,324.528
269.8000,-0.793033,324.541
269.7000,-0.815239,324.552
269.6000,-0.788481,324.564
269.5000,-0.756093,324.576
269.4000,-0.7151,324.58
269.3000,-0.693376,324.59
269.2000,-0.675765,324.601
269.1000,-0.612292,324.618
269.0000,-0.572457,324.636
268.9000,-0.550424,324.659
268.8000,-0.557561,324.679
268.7000,-0.572762,324.702
268.6000,-0.580002,324.743
268.5000,-0.590278,324.795
268.4000,-0.636246,324.844
268.3000,-0.669395,324.881
268.2000,-0.638125,324.919
268.1000,-0.632444,324.951
268.0000,-0.600756,324.993
267.9000,-0.583907,325.032
267.8000,-0.587155,325.071
267.7000,-0.616133,325.102
267.6000,-0.671202,325.139
267.5000,-0.644004,325.185
267.4000,-0.717581,325.218
267.3000,-0.768948,325.254
267.2000,-0.80164,325.283
267.1000,-0.809726,325.324
267.0000,-0.811348,325.364
266.9000,-0.806615,325.407
266.8000,-0.733817,325.443
266.7000,-0.761895,325.471
266.6000,-0.793723,325.52
266.5000,-0.755644,325.569
266.4000,-0.733285,325.63
266.3000,-0.682441,325.684
266.2000,-0.572895,325.74
266.1000,-0.514932,325.787
266.0000,-0.471503,325.828
265.9000,-0.381557,325.882
265.8000,-0.27896,325.934
265.7000,-0.218849,325.998
265.6000,-0.206532,326.056
265.5000,-0.230304,326.113
265.4000,-0.344586,326.152
265.3000,-0.451674,326.187
265.2000,-0.496187,326.242
265.1000,-0.584736,326.293
265.0000,-0.65989,326.346
264.9000,-0.714938,326.399
264.8000,-0.732082,326.433
264.7000,-0.774546,326.477
264.6000,-0.830609,326.528
264.5000,-0.875721,326.599
264.4000,-0.855995,326.67
264.3000,-0.828571,326.728
264.2000,-0.720204,326.794
264.1000,-0.691038,326.853
264.0000,-0.73731,326.93
263.9000,-0.755445,327.007
263.8000,-0.710656,327.073
263.7000,-0.645851,327.135
263.6000,-0.611716,327.195
263.5000,-0.644682,327.266
263.4000,-0.761748,327.335
263.3000,-0.874109,327.383
263.2000,-0.87885,327.436
263.1000,-0.869894,327.495
263.0000,-0.907166,327.564
262.9000,-0.916427,327.626
262.8000,-0.926017,327.685
262.7000,-0.902971,327.738
262.6000,-0.90765,327.793
262.5000,-0.868108,327.875
262.4000,-0.845042,327.949
262.3000,-0.801941,328.022
262.2000,-0.736683,328.094
262.1000,-0.714162,328.168
262.0000,-0.729738,328.234
261.9000,-0.743318,328.305
261.8000,-0.710868,328.384
261.7000,-0.708681,328.437
261.6000,-0.708892,328.506
261.5000,-0.641025,328.579
261.4000,-0.583449,328.647
261.3000,-0.543701,328.705
261.2000,-0.522656,328.776
261.1000,-0.483062,328.862
261.0000,-0.478827,328.95
260.9000,-0.470807,329.04
260.8000,-0.441676,329.128
260.7000,-0.406857,329.212
260.6000,-0.39729,329.289
260.5000,-0.39611,329.375
260.4000,-0.440455,329.468
260.3000,-0.518694,329.552
260.2000,-0.543113,329.617
260.1000,-0.50757,329.683
260.0000,-0.530293,329.759
259.9000,-0.57564,329.835
259.8000,-0.654165,329.917
259.7000,-0.701735,329.998
259.6000,-0.753614,330.065
259.5000,-0.718168,330.139
259.4000,-0.758441,330.223
259.3000,-0.843112,330.306
259.2000,-0.856094,330.391
259.1000,-0.900099,330.477
259.0000,-0.916495,330.549
258.9000,-0.97021,330.618
258.8000,-0.953351,330.706
258.7000,-0.884539,330.783
258.6000,-0.765899,330.868
258.5000,-0.627846,330.963
258.4000,-0.602003,331.04
258.3000,-0.622412,331.113
258.2000,-0.577817,331.198
258.1000,-0.493202,331.284
258.0000,-0.478825,331.371
257.9000,-0.504665,331.466
257.8000,-0.530154,331.557
257.7000,-0.619801,331.636
257.6000,-0.650989,331.74
257.5000,-0.601052,331.841
257.4000,-0.611642,331.938
257.3000,-0.67255,332.021
257.2000,-0.695354,332.106
257.1000,-0.728471,332.192
257.0000,-0.727335,332.271
256.9000,-0.745659,332.347
256.8000,-0.735963,332.409
256.7000,-0.754932,332.476
256.6000,-0.765986,332.553
256.5000,-0.75189,332.63
256.4000,-0.792817,332.711
256.3000,-0.763104,332.78
256.2000,-0.752644,332.856
256.1000,-0.728017,332.942
256.0000,-0.684301,333.021
255.9000,-0.657003,333.099
255.8000,-0.627068,333.155
255.7000,-0.611146,333.23
255.6000,-0.535686,333.318
255.5000,-0.487111,333.401
255.4000,-0.422771,333.482
255.3000,-0.369647,333.551
255.2000,-0.348471,333.635
255.1000,-0.275901,333.713
255.0000,-0.268703,333.795
254.9000,-0.28204,333.867
254.8000,-0.287327,333.933
254.7000,-0.338054,334.012
254.6000,-0.383237,334.101
254.5000,-0.442217,334.205
254.4000,-0.519193,334.295
254.3000,-0.55497,334.389
254.2000,-0.611383,334.483
254.1000,-0.659303,334.59
254.0000,-0.674243,334.697
253.9000,-0.644205,334.807
253.8000,-0.604834,334.895
253.7000,-0.620745,334.968
253.6000,-0.625089,335.04
253.5000,-0.586811,335.127
253.4000,-0.535097,335.207
253.3000,-0.485094,335.29
253.2000,-0.496782,335.361
253.1000,-0.510022,335.422
253.0000,-0.587752,335.481
252.9000,-0.590176,335.557
252.8000,-0.522649,335.64
252.7000,-0.51758,335.719
252.6000,-0.578079,335.798
252.5000,-0.602106,335.882
252.4000,-0.545248,335.961
252.3000,-0.521158,336.044
252.2000,-0.433461,336.131
252.1000,-0.358606,336.222
252.0000,-0.37537,336.3
251.9000,-0.455352,336.372
251.8000,-0.490681,336.449
251.7000,-0.472695,336.523
251.6000,-0.551817,336.604
251.5000,-0.58473,336.687
251.4000,-0.606254,336.778
251.3000,-0.70362,336.86
251.2000,-0.706746,336.943
251.1000,-0.632473,337.038
251.0000,-0.561038,337.131
250.9000,-0.518411,337.225
250.8000,-0.565668,337.307
250.7000,-0.532079,337.409
250.6000,-0.495145,337.503
250.5000,-0.430363,337.592
250.4000,-0.454202,337.688
250.3000,-0.494529,337.773
250.2000,-0.57385,337.86
250.1000,-0.636302,337.943
250.0000,-0.57861,338.037
249.9000,-0.582038,338.123
249.8000,-0.656235,338.196
249.7000,-0.678505,338.283
249.6000,-0.677836,338.362
249.5000,-0.598268,338.448
249.4000,-0.517434,338.548
249.3000,-0.440436,338.649
249.2000,-0.337869,338.749
249.1000,-0.310503,338.849
249.0000,-0.27681,338.944
248.9000,-0.234537,339.037
248.8000,-0.178532,339.132
248.7000,-0.267428,339.226
248.6000,-0.338544,339.309
248.5000,-0.382947,339.393
248.4000,-0.452817,339.472
248.3000,-0.533126,339.539
248.2000,-0.555085,339.615
248.1000,-0.620287,339.701
248.0000,-0.704528,339.789
247.9000,-0.664701,339.899
247.8000,-0.623183,339.998
247.7000,-0.600365,340.086
247.6000,-0.636402,340.179
247.5000,-0.660614,340.27
247.4000,-0.675465,340.35
247.3000,-0.653266,340.421
247.2000,-0.63821,340.496
247.1000,-0.631293,340.552
247.0000,-0.567703,340.599
246.9000,-0.503787,340.661
246.8000,-0.477728,340.717
246.7000,-0.410611,340.786
246.6000,-0.324872,340.861
246.5000,-0.287272,340.942
246.4000,-0.304291,341.014
246.3000,-0.312644,341.087
246.2000,-0.386767,341.171
246.1000,-0.491333,341.268
246.0000,-0.570667,341.372
245.9000,-0.609238,341.473
245.8000,-0.56858,341.581
245.7000,-0.586759,341.698
245.6000,-0.575895,341.818
245.5000,-0.616349,341.936
245.4000,-0.669193,342.049
245.3000,-0.688634,342.154
245.2000,-0.625571,342.269
245.1000,-0.558415,342.387
245.0000,-0.573324,342.496
244.9000,-0.610501,342.597
244.8000,-0.611238,342.701
244.7000,-0.598991,342.812
244.6000,-0.518578,342.924
244.5000,-0.451299,343.043
244.4000,-0.443317,343.157
244.3000,-0.44607,343.262
244.2000,-0.540002,343.36
244.1000,-0.537715,343.472
244.0000,-0.563958,343.581
243.9000,-0.559629,343.687
243.8000,-0.533515,343.793
243.7000,-0.514101,343.9
243.6000,-0.50986,343.998
243.5000,-0.615328,344.094
243.4000,-0.687039,344.211
243.3000,-0.695795,344.322
243.2000,-0.774592,344.427
243.1000,-0.696038,344.539
243.0000,-0.673403,344.652
242.9000,-0.710655,344.768
242.8000,-0.75913,344.883
242.7000,-0.696158,344.995
242.6000,-0.614273,345.098
242.5000,-0.555921,345.207
242.4000,-0.522878,345.327
242.3000,-0.514321,345.445
242.2000,-0.537349,345.567
242.1000,-0.606991,345.686
242.0000,-0.650085,345.8
241.9000,-0.652415,345.922
241.8000,-0.66572,346.058
241.7000,-0.673124,346.189
241.6000,-0.668673,346.309
241.5000,-0.640234,346.431
241.4000,-0.654072,346.558
241.3000,-0.612552,346.693
241.2000,-0.522266,346.827
241.1000,-0.47872,346.966
241.0000,-0.484913,347.097
240.9000,-0.416892,347.231
240.8000,-0.330555,347.379
240.7000,-0.281569,347.531
240.6000,-0.329336,347.677
240.5000,-0.360595,347.812
240.4000,-0.429388,347.942
240.3000,-0.473567,348.076
240.2000,-0.481977,348.212
240.1000,-0.493983,348.355
240.0000,-0.488224,348.495
239.9000,-0.448585,348.64
239.8000,-0.515988,348.782
239.7000,-0.451606,348.931
239.6000,-0.364547,349.096
239.5000,-0.291777,349.27
239.4000,-0.240241,349.449
239.3000,-0.226956,349.618
239.2000,-0.280871,349.783
239.1000,-0.354689,349.945
239.0000,-0.259982,350.111
238.9000,-0.190422,350.28
238.8000,-0.2159,350.443
238.7000,-0.240072,350.604
238.6000,-0.262859,350.754
238.5000,-0.310769,350.907
238.4000,-0.354913,351.063
238.3000,-0.37733,351.216
238.2000,-0.419592,351.372
238.1000,-0.439468,351.534
238.0000,-0.501543,351.703
237.9000,-0.480175,351.876
237.8000,-0.468156,352.05
237.7000,-0.523301,352.222
237.6000,-0.526042,352.399
237.5000,-0.503512,352.584
237.4000,-0.555878,352.769
237.3000,-0.614392,352.951
237.2000,-0.593703,353.128
237.1000,-0.633499,353.297
237.0000,-0.607463,353.477
236.9000,-0.511188,353.664
236.8000,-0.441476,353.852
236.7000,-0.442734,354.038
236.6000,-0.34658,354.216
236.5000,-0.268599,354.394
236.4000,-0.275943,354.577
236.3000,-0.345062,354.764
236.2000,-0.435929,354.949
236.1000,-0.542597,355.127
236.0000,-0.589348,355.311
235.9000,-0.584354,355.498
235.8000,-0.694909,355.69
235.7000,-0.804359,355.881
235.6000,-0.847583,356.067
235.5000,-0.759508,356.257
235.4000,-0.705233,356.452
235.3000,-0.647482,356.643
235.2000,-0.637601,356.833
235.1000,-0.662777,357.018
235.0000,-0.663751,357.201
234.9000,-0.650883,357.384
234.8000,-0.590406,357.571
234.7000,-0.581811,357.764
234.6000,-0.625928,357.945
234.5000,-0.627195,358.134
234.4000,-0.646575,358.323
234.3000,-0.5945,358.513
234.2000,-0.551518,358.71
234.1000,-0.512765,358.914
234.0000,-0.552986,359.111
233.9000,-0.536126,359.308
233.8000,-0.548332,359.511
233.7000,-0.555866,359.714
233.6000,-0.63421,359.917
233.5000,-0.705168,360.127
233.4000,-0.7139,360.328
233.3000,-0.694783,360.532
233.2000,-0.669046,360.745
233.1000,-0.625457,360.955
233.0000,-0.568548,361.166
232.9000,-0.5259,361.37
232.8000,-0.395621,361.582
232.7000,-0.260394,361.8
232.6000,-0.283971,362.016
232.5000,-0.343977,362.231
232.4000,-0.375406,362.433
232.3000,-0.399789,362.642
232.2000,-0.464439,362.846
232.1000,-0.498651,363.058
232.0000,-0.563651,363.264
231.9000,-0.674589,363.468
231.8000,-0.656495,363.665
231.7000,-0.577039,363.867
231.6000,-0.601912,364.075
231.5000,-0.662012,364.271
231.4000,-0.733595,364.472
231.3000,-0.737834,364.673
231.2000,-0.728641,364.88
231.1000,-0.709793,365.082
231.0000,-0.70276,365.286
230.9000,-0.752145,365.494
230.8000,-0.718832,365.697
230.7000,-0.611819,365.916
230.6000,-0.508365,366.133
230.5000,-0.395241,366.354
230.4000,-0.360232,366.57
230.3000,-0.332636,366.79
230.2000,-0.399275,367.006
230.1000,-0.358183,367.229
230.0000,-0.259348,367.451
229.9000,-0.216773,367.664
229.8000,-0.264538,367.874
229.7000,-0.351675,368.079
229.6000,-0.40164,368.283
229.5000,-0.356579,368.479
229.4000,-0.29368,368.669
229.3000,-0.294834,368.853
229.2000,-0.340138,369.032
229.1000,-0.485422,369.209
229.0000,-0.580971,369.393
228.9000,-0.580692,369.574
228.8000,-0.586471,369.756
228.7000,-0.646855,369.95
228.6000,-0.690685,370.157
228.5000,-0.733621,370.371
228.4000,-0.819756,370.597
228.3000,-0.801607,370.833
228.2000,-0.819923,371.062
228.1000,-0.882379,371.304
228.0000,-0.885839,371.55
227.9000,-0.901944,371.789
227.8000,-0.950712,372.023
227.7000,-0.947545,372.264
227.6000,-0.895092,372.5
227.5000,-0.837271,372.727
227.4000,-0.84427,372.954
227.3000,-0.845559,373.184
227.2000,-0.801794,373.412
227.1000,-0.815394,373.637
227.0000,-0.742118,373.858
226.9000,-0.801563,374.066
226.8000,-0.916226,374.273
226.7000,-0.955206,374.485
226.6000,-1.01139,374.697
226.5000,-0.909395,374.906
226.4000,-0.923208,375.105
226.3000,-0.994808,375.3
226.2000,-1.0722,375.508
226.1000,-1.05937,375.722
226.0000,-0.969856,375.936
225.9000,-0.948241,376.146
225.8000,-0.855223,376.356
225.7000,-0.822719,376.564
225.6000,-0.859026,376.771
225.5000,-0.723901,376.989
225.4000,-0.757616,377.198
225.3000,-0.811658,377.412
225.2000,-0.803105,377.627
225.1000,-0.70401,377.845
225.0000,-0.581853,378.064
224.9000,-0.512949,378.282
224.8000,-0.371934,378.503
224.7000,-0.317365,378.72
224.6000,-0.196321,378.94
224.5000,-0.0516616,379.155
224.4000,0.0483108,379.363
224.3000,0.07769,379.569
224.2000,0.047978,379.772
224.1000,0.0157208,379.979
224.0000,-0.0309753,380.186
223.9000,-0.105468,380.391
223.8000,-0.206032,380.596
223.7000,-0.253434,380.8
223.6000,-0.251009,381.011
223.5000,-0.133552,381.226
223.4000,-0.0750007,381.44
223.3000,-0.14899,381.637
223.2000,-0.190793,381.834
223.1000,-0.1578,382.036
223.0000,-0.0586824,382.238
222.9000,-0.00273768,382.441
222.8000,0.021542,382.639
222.7000,-0.150343,382.833
222.6000,-0.263417,383.025
222.5000,-0.241626,383.23
222.4000,-0.186688,383.433
222.3000,-0.1682,383.635
222.2000,-0.285853,383.834
222.1000,-0.393329,384.029
222.0000,-0.461313,384.227
221.9000,-0.330904,384.427
221.8000,-0.213871,384.623
221.7000,-0.183094,384.822
221.6000,-0.168132,385.021
221.5000,-0.170734,385.224
221.4000,-0.142894,385.418
221.3000,-0.112275,385.615
221.2000,-0.0194043,385.814
221.1000,-0.00661247,386.009
221.0000,-0.1524,386.2
220.9000,-0.234532,386.388
220.8000,-0.352159,386.577
220.7000,-0.516836,386.76
220.6000,-0.602001,386.949
220.5000,-0.566793,387.146
220.4000,-0.526381,387.333
220.3000,-0.542096,387.525
220.2000,-0.482715,387.722
220.1000,-0.514659,387.915
220.0000,-0.602006,388.107
219.9000,-0.507364,388.306
219.8000,-0.42885,388.502
219.7000,-0.35195,388.695
219.6000,-0.233455,388.89
219.5000,-0.265522,389.083
219.4000,-0.358956,389.274
219.3000,-0.325228,389.466
219.2000,-0.219671,389.658
219.1000,-0.210458,389.847
219.0000,-0.191852,390.04
218.9000,-0.301978,390.227
218.8000,-0.425493,390.417
218.7000,-0.474777,390.605
218.6000,-0.422336,390.795
218.5000,-0.454429,390.98
218.4000,-0.566196,391.17
218.3000,-0.675223,391.352
218.2000,-0.853017,391.536
218.1000,-0.982581,391.717
218.0000,-1.01389,391.905
217.9000,-1.05005,392.093
217.8000,-1.09127,392.273
217.7000,-1.19322,392.458
217.6000,-1.16877,392.64
217.5000,-1.056,392.831
217.4000,-0.89954,393.02
217.3000,-0.789274,393.204
217.2000,-0.765032,393.39
217.1000,-0.733489,393.574
217.0000,-0.74594,393.76
216.9000,-0.777216,393.947
216.8000,-0.845923,394.131
216.7000,-0.94768,394.309
216.6000,-0.978225,394.493
216.5000,-0.870669,394.685
216.4000,-0.793934,394.87
216.3000,-0.808942,395.049
216.2000,-0.854975,395.232
216.1000,-0.84338,395.417
216.0000,-0.762055,395.603
215.9000,-0.75694,395.784
215.8000,-0.683656,395.965
215.7000,-0.787129,396.143
215.6000,-0.874218,396.325
215.5000,-0.901943,396.512
215.4000,-0.831443,396.699
215.3000,-0.732433,396.884
215.2000,-0.643165,397.066
215.1000,-0.534511,397.26
215.0000,-0.53237,397.45
214.9000,-0.533038,397.641
214.8000,-0.506368,397.831
214.7000,-0.387203,398.023
214.6000,-0.328044,398.214
214.5000,-0.412186,398.403
214.4000,-0.479356,398.595
214.3000,-0.535467,398.786
214.2000,-0.524188,398.978
214.1000,-0.619423,399.167
214.0000,-0.586397,399.359
213.9000,-0.602018,399.552
213.8000,-0.620966,399.743
213.7000,-0.640908,399.939
213.6000,-0.536938,400.138
213.5000,-0.521024,400.335
213.4000,-0.5027,400.534
213.3000,-0.32594,400.738
213.2000,-0.244026,400.947
213.1000,-0.284604,401.15
213.0000,-0.427214,401.355
212.9000,-0.491011,401.562
212.8000,-0.544011,401.764
212.7000,-0.534373,401.972
212.6000,-0.482647,402.179
212.5000,-0.539275,402.387
212.4000,-0.606397,402.594
212.3000,-0.560829,402.803
212.2000,-0.370327,403.016
212.1000,-0.182221,403.229
212.0000,-0.0421751,403.451
211.9000,0.0181387,403.671
211.8000,0.0301279,403.886
211.7000,-0.0259004,404.101
211.6000,-0.131067,404.315
211.5000,-0.115751,404.534
211.4000,-0.201631,404.753
211.3000,-0.381261,404.972
211.2000,-0.45848,405.187
211.1000,-0.622102,405.402
211.0000,-0.655815,405.623
210.9000,-0.567659,405.845
210.8000,-0.53519,406.066
210.7000,-0.366902,406.296
210.6000,-0.201577,406.524
210.5000,-0.0848648,406.751
210.4000,-0.120972,406.976
210.3000,-0.141132,407.206
210.2000,-0.0983662,407.434
210.1000,-0.119909,407.668
210.0000,-0.0230714,407.904
209.9000,-0.0934858,408.136
209.8000,-0.203337,408.364
209.7000,-0.288183,408.598
209.6000,-0.354529,408.831
209.5000,-0.274441,409.071
209.4000,-0.37044,409.308
209.3000,-0.515533,409.54
209.2000,-0.73488,409.78
209.1000,-0.904985,410.018
209.0000,-1.15239,410.254
208.9000,-1.34841,410.495
208.8000,-1.32249,410.739
208.7000,-1.13099,410.99
208.6000,-0.944487,411.244
208.5000,-0.778653,411.504
208.4000,-0.584913,411.757
208.3000,-0.426957,412.015
208.2000,-0.225462,412.279
208.1000,-0.0377261,412.537
208.0000,-0.0295069,412.791
207.9000,-0.223342,413.042
207.8000,-0.346107,413.297
207.7000,-0.445476,413.548
207.6000,-0.498947,413.803
207.5000,-0.658788,414.051
207.4000,-0.702634,414.299
207.3000,-0.760313,414.548
207.2000,-0.785962,414.796
207.1000,-0.629304,415.048
207.0000,-0.514292,415.297
206.9000,-0.517298,415.543
206.8000,-0.470415,415.79
206.7000,-0.362346,416.04
206.6000,-0.267819,416.295
206.5000,-0.100116,416.545
206.4000,-0.0187788,416.798
206.3000,0.00595969,417.053
206.2000,-0.160803,417.292
206.1000,-0.108061,417.536
206.0000,-0.0746803,417.778
205.9000,-0.19981,418.016
205.8000,-0.20726,418.257
205.7000,-0.337376,418.495
205.6000,-0.373532,418.74
205.5000,-0.503897,418.979
205.4000,-0.296675,419.234
205.3000,-0.22635,419.484
205.2000,-0.364991,419.735
205.1000,-0.377747,419.99
205.0000,-0.345517,420.242
204.9000,-0.342613,420.497
204.8000,-0.525501,420.745
204.7000,-0.550134,421.003
204.6000,-0.677727,421.254
204.5000,-0.928394,421.507
204.4000,-1.02508,421.76
204.3000,-0.886782,422.019
204.2000,-0.90875,422.28
204.1000,-0.939437,422.536
204.0000,-0.84648,422.801
203.9000,-0.692698,423.063
203.8000,-0.562735,423.324
203.7000,-0.296094,423.591
203.6000,0.0122116,423.862
203.5000,0.0862451,424.129
203.4000,0.109051,424.388
203.3000,0.130689,424.653
203.2000,0.22914,424.925
203.1000,0.296151,425.194
203.0000,0.316109,425.464
202.9000,0.378209,425.738
202.8000,0.300524,426.007
202.7000,0.285162,426.278
202.6000,0.31188,426.551
202.5000,0.300956,426.824
202.4000,0.0517284,427.084
202.3000,-0.120926,427.352
202.2000,-0.293069,427.619
202.1000,-0.443651,427.884
202.0000,-0.609429,428.149
201.9000,-0.617201,428.422
201.8000,-0.556573,428.705
201.7000,-0.477532,428.987
201.6000,-0.21703,429.277
201.5000,0.0109437,429.567
201.4000,0.0372894,429.853
201.3000,0.0814513,430.145
201.2000,0.262839,430.445
201.1000,0.265792,430.74
201.0000,0.245065,431.032
200.9000,0.144124,431.323
200.8000,0.0147728,431.618
200.7000,-0.284446,431.909
200.6000,-0.287689,432.21
200.5000,-0.309286,432.513
200.4000,-0.53467,432.814
200.3000,-0.664554,433.117
200.2000,-0.724576,433.426
200.1000,-0.702403,433.732
200.0000,-0.718548,434.039
199.9000,-0.544784,434.349
199.8000,-0.379875,434.655
199.7000,-0.233458,434.954
199.6000,0.0585774,435.252
199.5000,0.178048,435.55
199.4000,0.307999,435.841
199.3000,0.204229,436.123
199.2000,0.232051,436.41
199.1000,0.202379,436.693
199.0000,0.0629173,436.982
198.9000,-0.164021,437.276
198.8000,-0.417541,437.575
198.7000,-0.773485,437.876
198.6000,-1.06701,438.182
198.5000,-0.973276,438.513
198.4000,-1.05302,438.845
198.3000,-1.20499,439.178
198.2000,-1.17445,439.528
198.1000,-1.03391,439.889
198.0000,-0.8167,440.27
197.9000,-0.607327,440.666
197.8000,-0.421012,441.074
197.7000,-0.394613,441.487
197.6000,-0.261358,441.911
197.5000,-0.100075,442.335
197.4000,-0.087582,442.745
197.3000,-0.0495847,443.139
197.2000,-0.0689238,443.497
197.1000,0.00811362,443.816
197.0000,0.103589,444.102
196.9000,0.0207192,444.359
196.8000,-0.00768263,444.597
196.7000,0.112724,444.833
196.6000,0.192788,445.069
196.5000,0.338291,445.319
196.4000,0.317964,445.592
196.3000,0.24805,445.902
196.2000,0.0600169,446.252
196.1000,0.0949614,446.643
196.0000,0.238398,447.078
195.9000,0.144569,447.56
195.8000,0.158677,448.11
195.7000,-0.0430151,448.728
195.6000,-0.0720802,449.437
195.5000,-0.0636859,450.236
195.4000,-0.07701,451.105
195.3000,0.0299845,452.035
195.2000,-0.050346,452.994
195.1000,-0.120406,453.948
195.0000,-0.103102,454.85
194.9000,-0.00874178,455.648
194.8000,-0.0122758,456.281
194.7000,-0.256088,456.729
194.6000,-0.209041,457.024
194.5000,-0.237771,457.17
194.4000,-0.329222,457.2
194.3000,-0.416785,457.15
194.2000,-0.58489,457.062
194.1000,-0.682539,457.011
194.0000,-0.904581,457.052
193.9000,-0.783979,457.248
193.8000,-0.773186,457.603
193.7000,-0.73037,458.148
193.6000,-0.451976,458.915
193.5000,-0.424771,459.912
193.4000,-0.468746,461.188
193.3000,-0.295411,462.746
193.2000,-0.153679,464.555
193.1000,-0.133305,466.566
193.0000,0.000757133,468.724
192.9000,0.158022,470.946
192.8000,0.0114279,473.103
192.7000,-0.237466,475.067
192.6000,-0.142118,476.667
192.5000,-0.0175774,477.778
192.4000,0.0622046,478.379
192.3000,0.249059,478.498
192.2000,0.103647,478.192
192.1000,-0.135006,477.542
192.0000,-0.176087,476.669
191.9000,-0.0518392,475.721
191.8000,0.117109,474.896
191.7000,0.1863,474.389
191.6000,0.07773,474.291
191.5000,0.17297,474.641
191.4000,0.429671,475.458
191.3000,0.729762,476.79
191.2000,0.730471,478.646
191.1000,0.462124,481.009
191.0000,0.318816,483.82
190.9000,0.363534,486.938
190.8000,0.636983,490.234
190.7000,0.547436,493.569
190.6000,0.247062,496.796
190.5000,-0.119025,499.695
190.4000,-0.511591,502.03
190.3000,-0.605742,503.64
190.2000,-0.688374,504.484
190.1000,-1.08172,504.617
190.0000,-1.60202,504.171

##### Extended Information
[Comments]
Sample name,D2_0.4uM
Comment,
User,Administrator
Division
Company,CSIR-IMTECH

[Detailed Information]
Creation date,3/11/2024 1:00 PM

Data array type,Linear data array * 2
Horizontal axis,Wavelength [nm]
Vertical axis(1),CD [mdeg]
Vertical axis(2),HT [V]
Start,350 nm
End,190 nm
Data interval,0.1 nm
Data points,1601    

[Measurement Information]
Model Name,J-815
Serial No.,B063061168

Sensitivity,Standard
D.I.T.,1 sec
Bandwidth,
Start Mode,Immediately
Scanning Speed,50 nm/min
Baseline Correction,None
Shutter Control,Manual
Accumulations,3

