TITLE,D2_0.4uM
DATA TYPE,
ORIGIN,JASCO
OWNER,
DATE,24/03/11
TIME,13:01:16
SPECTROMETER/DATA SYSTEM,
LOCALE,1033
RESOLUTION,
DELTAX,-0.1
XUNITS,NANOMETERS
YUNITS,Mol. Ellip.
Y2UNITS,HT [V]
FIRSTX,  350.0000
LASTX,  190.0000
NPOINTS,    1601
FIRSTY,359120.71875
MAXY,2119247.50000
MINY,-4005039.25000
XYDATA
350.0000,359121,473.217
349.9000,430072,472.644
349.8000,313845,471.774
349.7000,513585,470.894
349.6000,1.11544E+006,470.263
349.5000,1.11073E+006,469.704
349.4000,1.48594E+006,468.829
349.3000,852927,468.179
349.2000,273830,467.618
349.1000,182475,466.782
349.0000,999171,466.178
348.9000,1.6229E+006,465.646
348.8000,1.24169E+006,464.797
348.7000,796495,463.939
348.6000,143800,463.323
348.5000,308727,462.801
348.4000,451008,461.947
348.3000,558861,461.291
348.2000,86388,460.693
348.1000,-737854,459.801
348.0000,-331393,459.145
347.9000,82119.7,458.567
347.8000,804712,457.721
347.7000,1.57214E+006,456.864
347.6000,1.76715E+006,456.248
347.5000,1.6269E+006,455.737
347.4000,1.67931E+006,454.934
347.3000,2.11925E+006,454.343
347.2000,1.95671E+006,453.835
347.1000,1.95988E+006,453.087
347.0000,1.68506E+006,452.537
346.9000,848032,452.058
346.8000,403902,451.298
346.7000,276455,450.53
346.6000,644056,449.968
346.5000,495845,449.223
346.4000,110054,448.462
346.3000,-102547,447.866
346.2000,144551,447.08
346.1000,812578,446.286
346.0000,927998,445.697
345.9000,860701,445.183
345.8000,308656,444.392
345.7000,76060.6,443.809
345.6000,127371,443.315
345.5000,402618,442.588
345.4000,260488,442.06
345.3000,186144,441.612
345.2000,123646,440.924
345.1000,39498.8,440.233
345.0000,269393,439.734
344.9000,313093,439.068
344.8000,325697,438.379
344.7000,263397,437.853
344.6000,234065,437.191
344.5000,205325,436.515
344.4000,-17357.5,435.998
344.3000,87551.5,435.292
344.2000,43687.2,434.59
344.1000,120375,434.069
344.0000,-62433.1,433.425
343.9000,-245104,432.777
343.8000,-57049.9,432.298
343.7000,-217893,431.879
343.6000,63059.1,431.217
343.5000,57624.1,430.762
343.4000,-198426,430.359
343.3000,205596,429.734
343.2000,459313,429.265
343.1000,878091,428.847
343.0000,528107,428.217
342.9000,485135,427.574
342.8000,688596,427.104
342.7000,473190,426.497
342.6000,822593,425.889
342.5000,780824,425.434
342.4000,860223,424.843
342.3000,1.01053E+006,424.251
342.2000,1.15846E+006,423.803
342.1000,1.30447E+006,423.249
342.0000,1.19618E+006,422.691
341.9000,1.28879E+006,422.294
341.8000,1.16043E+006,421.75
341.7000,652330,421.197
341.6000,396557,420.799
341.5000,341953,420.273
341.4000,376659,419.739
341.3000,545029,419.332
341.2000,543363,418.775
341.1000,435376,418.203
341.0000,403518,417
340.9000,648615,416.421
340.8000,548611,415.825
340.7000,96734.3,415.362
340.6000,18314,414.792
340.5000,-186561,414.219
340.4000,-270497,413.791
340.3000,-306760,413.25
340.2000,-227644,413.399
340.1000,-6208.29,413.11
340.0000,199065,412.642
339.9000,526300,412.173
339.8000,526735,411.826
339.7000,284468,411.381
339.6000,234429,410.93
339.5000,369423,410.612
339.4000,562785,410.157
339.3000,239408,409.675
339.2000,120902,409.142
339.1000,-158158,408.654
339.0000,52087.2,408.158
338.9000,243056,407.61
338.8000,180988,407.106
338.7000,47198.4,406.589
338.6000,-43309.3,406.016
338.5000,-179128,405.506
338.4000,-382805,405.126
338.3000,-268634,404.68
338.2000,-202264,404.233
338.1000,-321802,403.909
338.0000,104109,403.483
337.9000,100180,403.048
337.8000,-159998,402.753
337.7000,-44100.4,402.379
337.6000,227091,401.751
337.5000,555559,401.449
337.4000,497817,401.041
337.3000,264968,400.613
337.2000,-47349.4,400.142
337.1000,30938.1,399.723
337.0000,409353,399.299
336.9000,572286,398.839
336.8000,464366,398.657
336.7000,286504,398.249
336.6000,277282,397.813
336.5000,338981,397.422
336.4000,369996,397.148
336.3000,240653,396.752
336.2000,-39761.1,396.35
336.1000,-228286,396.058
336.0000,-345047,395.683
335.9000,-305341,395.137
335.8000,-697162,394.7
335.7000,-757338,394.306
335.6000,-505258,393.905
335.5000,-441715,393.492
335.4000,-325283,393.134
335.3000,-87739.9,392.773
335.2000,19607.9,392.388
335.1000,-113635,392.171
335.0000,148486,391.974
334.9000,134493,391.642
334.8000,21203.9,391.3
334.7000,-299132,390.925
334.6000,-728064,390.594
334.5000,-1.05787E+006,390.254
334.4000,-1.60507E+006,389.861
334.3000,-1.79512E+006,389.507
334.2000,-1.8888E+006,389.143
334.1000,-1.76143E+006,388.754
334.0000,-1.61181E+006,388.413
333.9000,-1.33182E+006,388.168
333.8000,-846505,387.841
333.7000,-566558,387.501
333.6000,-220974,387.136
333.5000,169294,386.815
333.4000,639974,386.496
333.3000,860804,386.153
333.2000,1.01495E+006,385.855
333.1000,1.2354E+006,385.555
333.0000,1.21384E+006,385.239
332.9000,931227,384.955
332.8000,845750,384.617
332.7000,718565,384.315
332.6000,428254,384
332.5000,248675,383.656
332.4000,128642,383.35
332.3000,-363027,383.032
332.2000,-652657,382.673
332.1000,-371843,382.347
332.0000,-482835,382.004
331.9000,-498717,381.713
331.8000,-287419,381.423
331.7000,-74144.7,381.11
331.6000,-171539,380.822
331.5000,-13873.1,380.421
331.4000,324938,380.107
331.3000,385106,379.824
331.2000,651638,379.519
331.1000,880771,379.252
331.0000,658479,378.974
330.9000,421965,378.689
330.8000,389911,378.439
330.7000,331690,378.134
330.6000,345187,377.863
330.5000,233034,377.59
330.4000,2847.35,377.308
330.3000,-14133.4,377.064
330.2000,276915,376.697
330.1000,403311,376.39
330.0000,331157,376.104
329.9000,345889,375.812
329.8000,267685,375.563
329.7000,267364,375.2
329.6000,371828,374.899
329.5000,98909,374.616
329.4000,-144609,374.344
329.3000,-177596,374.111
329.2000,-16784.1,373.762
329.1000,341640,373.489
329.0000,452700,373.248
328.9000,643262,373.036
328.8000,787139,372.864
328.7000,789311,372.547
328.6000,873760,372.284
328.5000,658522,372.042
328.4000,562379,371.825
328.3000,100447,371.643
328.2000,-4564.7,371.316
328.1000,-265076,371.017
328.0000,-416644,370.727
327.9000,-544198,370.48
327.8000,-627259,370.285
327.7000,-600597,369.969
327.6000,-580143,369.691
327.5000,-683039,369.429
327.4000,-784678,369.183
327.3000,-1.05394E+006,368.994
327.2000,-1.54381E+006,368.696
327.1000,-1.72289E+006,368.439
327.0000,-1.60987E+006,368.202
326.9000,-1.5771E+006,367.99
326.8000,-1.67645E+006,367.82
326.7000,-1.6736E+006,367.524
326.6000,-1.61843E+006,367.279
326.5000,-1.25425E+006,367.063
326.4000,-745921,366.845
326.3000,-359543,366.665
326.2000,26140.3,366.394
326.1000,61298.8,366.151
326.0000,116217,365.855
325.9000,126789,365.647
325.8000,62658.5,365.489
325.7000,-90224.7,365.285
325.6000,-331082,365.13
325.5000,-267138,364.851
325.4000,-634285,364.624
325.3000,-805649,364.432
325.2000,-893652,364.214
325.1000,-967197,364.009
325.0000,-989516,363.711
324.9000,-918497,363.443
324.8000,-764437,363.138
324.7000,-921346,362.936
324.6000,-833356,362.791
324.5000,-693535,362.533
324.4000,-652423,362.326
324.3000,-660071,362.126
324.2000,-550327,361.988
324.1000,-604865,361.747
324.0000,-780667,361.538
323.9000,-894877,361.345
323.8000,-995435,361.158
323.7000,-874512,361.05
323.6000,-853760,360.78
323.5000,-660040,360.518
323.4000,-411421,360.239
323.3000,-402279,360.047
323.2000,-390604,359.896
323.1000,-284449,359.616
323.0000,-332176,359.325
322.9000,-562236,358.994
322.8000,-697208,358.802
322.7000,-677109,358.556
322.6000,-925581,358.313
322.5000,-953241,358.086
322.4000,-756100,357.858
322.3000,-724431,357.71
322.2000,-719925,357.441
322.1000,-728994,357.179
322.0000,-680540,356.935
321.9000,-673465,356.777
321.8000,-660556,356.489
321.7000,-573086,356.194
321.6000,-546309,355.898
321.5000,-721488,355.606
321.4000,-741193,355.446
321.3000,-811803,355.226
321.2000,-801682,355.01
321.1000,-877175,354.8
321.0000,-902393,354.727
320.9000,-1.14236E+006,354.586
320.8000,-1.27202E+006,354.445
320.7000,-1.19073E+006,354.334
320.6000,-1.23828E+006,354.223
320.5000,-1.28295E+006,354.195
320.4000,-1.30637E+006,354.059
320.3000,-1.17008E+006,353.911
320.2000,-1.06246E+006,353.757
320.1000,-822508,353.701
320.0000,-605734,353.521
319.9000,-477207,353.316
319.8000,-447201,353.098
319.7000,-300198,352.876
319.6000,-284652,352.615
319.5000,-526326,352.398
319.4000,-724322,352.18
319.3000,-762179,351.962
319.2000,-755374,351.861
319.1000,-797092,351.666
319.0000,-836849,351.455
318.9000,-948488,351.257
318.8000,-1.22877E+006,351.155
318.7000,-1.14402E+006,350.967
318.6000,-1.09878E+006,350.768
318.5000,-1.20426E+006,350.585
318.4000,-1.2427E+006,350.396
318.3000,-1.27252E+006,350.165
318.2000,-1.38873E+006,349.987
318.1000,-1.43536E+006,349.801
318.0000,-1.24302E+006,349.625
317.9000,-1.31007E+006,349.548
317.8000,-1.45644E+006,349.391
317.7000,-1.47662E+006,349.214
317.6000,-1.66524E+006,349.026
317.5000,-1.92247E+006,348.942
317.4000,-2.11228E+006,348.787
317.3000,-2.11115E+006,348.627
317.2000,-2.18958E+006,348.455
317.1000,-2.03906E+006,348.28
317.0000,-1.68269E+006,348.063
316.9000,-1.40662E+006,347.887
316.8000,-1.14883E+006,347.728
316.7000,-976545,347.559
316.6000,-722008,347.364
316.5000,-312308,347.21
316.4000,-60006.5,347.065
316.3000,65812.1,346.902
316.2000,-55302.3,346.71
316.1000,-240664,346.567
316.0000,-363663,346.414
315.9000,-515633,346.249
315.8000,-752701,346.16
315.7000,-950692,345.994
315.6000,-1.20734E+006,345.818
315.5000,-1.44971E+006,345.649
315.4000,-1.5042E+006,345.574
315.3000,-1.64516E+006,345.403
315.2000,-1.84392E+006,345.222
315.1000,-1.93661E+006,345.056
315.0000,-1.98164E+006,344.893
314.9000,-2.09721E+006,344.71
314.8000,-2.04752E+006,344.563
314.7000,-1.94638E+006,344.416
314.6000,-2.03715E+006,344.25
314.5000,-2.0312E+006,344.084
314.4000,-1.85737E+006,343.968
314.3000,-1.55581E+006,343.844
314.2000,-1.40646E+006,343.707
314.1000,-1.2873E+006,343.524
314.0000,-1.10884E+006,343.379
313.9000,-1.12234E+006,343.245
313.8000,-1.07424E+006,343.11
313.7000,-855628,342.91
313.6000,-648572,342.737
313.5000,-741597,342.571
313.4000,-796656,342.4
313.3000,-726003,342.225
313.2000,-773766,342.086
313.1000,-932338,341.942
313.0000,-964939,341.791
312.9000,-1.12751E+006,341.635
312.8000,-1.43587E+006,341.528
312.7000,-1.64496E+006,341.406
312.6000,-1.65646E+006,341.283
312.5000,-1.63935E+006,341.108
312.4000,-1.57072E+006,340.962
312.3000,-1.51882E+006,340.812
312.2000,-1.45301E+006,340.65
312.1000,-1.24988E+006,340.431
312.0000,-1.15287E+006,340.235
311.9000,-1.07817E+006,340.046
311.8000,-1.01664E+006,339.79
311.7000,-976875,339.606
311.6000,-1.07542E+006,339.459
311.5000,-1.08923E+006,339.32
311.4000,-1.03327E+006,339.102
311.3000,-957704,338.968
311.2000,-874114,338.88
311.1000,-800567,338.802
311.0000,-627985,338.691
310.9000,-714307,338.603
310.8000,-769941,338.513
310.7000,-927045,338.428
310.6000,-942783,338.297
310.5000,-1.11635E+006,338.194
310.4000,-1.30863E+006,338.096
310.3000,-1.21039E+006,338.001
310.2000,-1.21056E+006,337.908
310.1000,-1.22044E+006,337.84
310.0000,-1.04329E+006,337.773
309.9000,-1.06501E+006,337.702
309.8000,-1.0288E+006,337.634
309.7000,-894003,337.583
309.6000,-807432,337.531
309.5000,-855040,337.402
309.4000,-1.08893E+006,337.302
309.3000,-1.17214E+006,337.201
309.2000,-1.28798E+006,337.108
309.1000,-1.2814E+006,336.923
309.0000,-1.24524E+006,336.779
308.9000,-1.32258E+006,336.652
308.8000,-1.38761E+006,336.527
308.7000,-1.30827E+006,336.413
308.6000,-1.28897E+006,336.323
308.5000,-1.14791E+006,336.227
308.4000,-1.1179E+006,336.085
308.3000,-1.21064E+006,336.002
308.2000,-1.10662E+006,335.929
308.1000,-1.04891E+006,335.872
308.0000,-1.04843E+006,335.75
307.9000,-1.16625E+006,335.649
307.8000,-1.27643E+006,335.546
307.7000,-1.46814E+006,335.455
307.6000,-1.63815E+006,335.329
307.5000,-1.7468E+006,335.178
307.4000,-1.84191E+006,335.05
307.3000,-1.98202E+006,334.899
307.2000,-2.15479E+006,334.793
307.1000,-2.22793E+006,334.685
307.0000,-2.35206E+006,334.589
306.9000,-2.35182E+006,334.461
306.8000,-2.15781E+006,334.392
306.7000,-1.95201E+006,334.343
306.6000,-1.84031E+006,334.247
306.5000,-1.86343E+006,334.166
306.4000,-1.66929E+006,334.073
306.3000,-1.52293E+006,334.003
306.2000,-1.37965E+006,333.868
306.1000,-1.24805E+006,333.759
306.0000,-1.29905E+006,333.628
305.9000,-1.43679E+006,333.521
305.8000,-1.58165E+006,333.432
305.7000,-1.57126E+006,333.337
305.6000,-1.61255E+006,333.261
305.5000,-1.69478E+006,333.154
305.4000,-1.70301E+006,333.093
305.3000,-1.64165E+006,333.028
305.2000,-1.66521E+006,332.982
305.1000,-1.74767E+006,332.891
305.0000,-1.67084E+006,332.79
304.9000,-1.69467E+006,332.721
304.8000,-1.67451E+006,332.598
304.7000,-1.7263E+006,332.498
304.6000,-1.72931E+006,332.383
304.5000,-1.87137E+006,332.266
304.4000,-1.80345E+006,332.158
304.3000,-1.7294E+006,332.059
304.2000,-1.6406E+006,332.003
304.1000,-1.48742E+006,331.92
304.0000,-1.46536E+006,331.876
303.9000,-1.38868E+006,331.819
303.8000,-1.40167E+006,331.74
303.7000,-1.40796E+006,331.686
303.6000,-1.47338E+006,331.6
303.5000,-1.5718E+006,331.534
303.4000,-1.5828E+006,331.429
303.3000,-1.68928E+006,331.313
303.2000,-1.71847E+006,331.212
303.1000,-1.70236E+006,331.123
303.0000,-1.72213E+006,331.073
302.9000,-1.66897E+006,331.004
302.8000,-1.55194E+006,330.93
302.7000,-1.35433E+006,330.868
302.6000,-1.33906E+006,330.801
302.5000,-1.50324E+006,330.77
302.4000,-1.6525E+006,330.711
302.3000,-1.70087E+006,330.621
302.2000,-1.63668E+006,330.537
302.1000,-1.67187E+006,330.434
302.0000,-1.91341E+006,330.365
301.9000,-2.14703E+006,330.278
301.8000,-2.3412E+006,330.193
301.7000,-2.23814E+006,330.123
301.6000,-2.07756E+006,330.046
301.5000,-2.11547E+006,330.008
301.4000,-2.18627E+006,329.949
301.3000,-2.15566E+006,329.881
301.2000,-2.0235E+006,329.827
301.1000,-1.92751E+006,329.762
301.0000,-1.77122E+006,329.726
300.9000,-1.66968E+006,329.657
300.8000,-1.68257E+006,329.577
300.7000,-1.80418E+006,329.504
300.6000,-1.80616E+006,329.424
300.5000,-1.84632E+006,329.359
300.4000,-1.90132E+006,329.304
300.3000,-1.87311E+006,329.236
300.2000,-1.8226E+006,329.177
300.1000,-1.91891E+006,329.12
300.0000,-2.10759E+006,329.059
299.9000,-2.23971E+006,329.008
299.8000,-2.13955E+006,328.954
299.7000,-2.13724E+006,328.89
299.6000,-1.97527E+006,328.836
299.5000,-1.95185E+006,328.774
299.4000,-1.96744E+006,328.722
299.3000,-1.86601E+006,328.656
299.2000,-1.6371E+006,328.604
299.1000,-1.29276E+006,328.566
299.0000,-1.25488E+006,328.509
298.9000,-1.3265E+006,328.462
298.8000,-1.54868E+006,328.422
298.7000,-1.63791E+006,328.368
298.6000,-1.80198E+006,328.324
298.5000,-2.02597E+006,328.269
298.4000,-2.25998E+006,328.21
298.3000,-2.54257E+006,328.156
298.2000,-2.64341E+006,328.094
298.1000,-2.68967E+006,328.036
298.0000,-2.63487E+006,327.984
297.9000,-2.69303E+006,327.931
297.8000,-2.6637E+006,327.863
297.7000,-2.50298E+006,327.816
297.6000,-2.413E+006,327.774
297.5000,-2.40782E+006,327.713
297.4000,-2.35018E+006,327.673
297.3000,-2.35956E+006,327.632
297.2000,-2.3496E+006,327.571
297.1000,-2.37204E+006,327.529
297.0000,-2.32929E+006,327.48
296.9000,-2.2499E+006,327.419
296.8000,-2.2247E+006,327.374
296.7000,-2.13552E+006,327.333
296.6000,-2.08504E+006,327.299
296.5000,-2.0302E+006,327.259
296.4000,-1.98787E+006,327.224
296.3000,-1.83769E+006,327.195
296.2000,-1.78564E+006,327.16
296.1000,-1.86886E+006,327.124
296.0000,-1.9244E+006,327.093
295.9000,-1.87608E+006,327.051
295.8000,-1.82652E+006,326.987
295.7000,-1.74563E+006,326.943
295.6000,-1.63864E+006,326.902
295.5000,-1.57269E+006,326.844
295.4000,-1.54359E+006,326.78
295.3000,-1.48835E+006,326.745
295.2000,-1.41425E+006,326.691
295.1000,-1.35173E+006,326.629
295.0000,-1.39085E+006,326.596
294.9000,-1.4764E+006,326.551
294.8000,-1.61021E+006,326.487
294.7000,-1.79636E+006,326.448
294.6000,-1.84978E+006,326.409
294.5000,-1.88303E+006,326.355
294.4000,-1.9973E+006,326.317
294.3000,-2.04511E+006,326.286
294.2000,-2.06642E+006,326.236
294.1000,-1.92735E+006,326.201
294.0000,-1.88336E+006,326.18
293.9000,-1.82392E+006,326.132
293.8000,-1.80571E+006,326.099
293.7000,-1.87868E+006,326.073
293.6000,-1.90367E+006,326.017
293.5000,-1.88761E+006,325.953
293.4000,-1.85637E+006,325.917
293.3000,-1.85939E+006,325.865
293.2000,-1.82167E+006,325.808
293.1000,-1.71994E+006,325.781
293.0000,-1.64897E+006,325.737
292.9000,-1.74217E+006,325.687
292.8000,-1.65558E+006,325.672
292.7000,-1.51906E+006,325.652
292.6000,-1.51458E+006,325.619
292.5000,-1.45734E+006,325.572
292.4000,-1.47718E+006,325.543
292.3000,-1.56884E+006,325.496
292.2000,-1.52497E+006,325.449
292.1000,-1.49578E+006,325.42
292.0000,-1.60287E+006,325.376
291.9000,-1.74668E+006,325.322
291.8000,-1.85799E+006,325.275
291.7000,-2.15837E+006,325.253
291.6000,-2.14918E+006,325.213
291.5000,-1.98301E+006,325.169
291.4000,-1.94645E+006,325.145
291.3000,-1.87278E+006,325.095
291.2000,-1.60385E+006,325.029
291.1000,-1.33247E+006,324.968
291.0000,-1.1147E+006,324.922
290.9000,-949964,324.854
290.8000,-909274,324.769
290.7000,-1.06993E+006,324.671
290.6000,-1.25367E+006,324.565
290.5000,-1.41831E+006,324.439
290.4000,-1.67135E+006,324.307
290.3000,-1.96761E+006,324.189
290.2000,-2.18791E+006,324.05
290.1000,-2.27686E+006,323.903
290.0000,-2.24068E+006,323.772
289.9000,-2.03022E+006,323.685
289.8000,-2.00668E+006,323.603
289.7000,-1.97012E+006,323.543
289.6000,-1.97867E+006,323.52
289.5000,-1.91207E+006,323.537
289.4000,-1.83559E+006,323.574
289.3000,-1.7341E+006,323.641
289.2000,-1.66003E+006,323.725
289.1000,-1.85355E+006,323.823
289.0000,-1.97662E+006,323.914
288.9000,-2.06396E+006,324.009
288.8000,-2.06356E+006,324.095
288.7000,-1.98805E+006,324.173
288.6000,-1.96429E+006,324.229
288.5000,-2.02451E+006,324.271
288.4000,-1.99166E+006,324.3
288.3000,-1.85145E+006,324.32
288.2000,-1.71592E+006,324.323
288.1000,-1.65339E+006,324.314
288.0000,-1.72446E+006,324.293
287.9000,-1.73587E+006,324.259
287.8000,-1.84021E+006,324.238
287.7000,-1.67927E+006,324.216
287.6000,-1.69821E+006,324.197
287.5000,-1.82511E+006,324.16
287.4000,-1.91848E+006,324.14
287.3000,-2.05632E+006,324.121
287.2000,-1.96559E+006,324.105
287.1000,-1.98495E+006,324.09
287.0000,-2.02416E+006,324.054
286.9000,-2.04986E+006,324.032
286.8000,-2.08139E+006,324.016
286.7000,-2.11492E+006,323.999
286.6000,-2.25563E+006,323.97
286.5000,-2.27597E+006,323.96
286.4000,-2.31155E+006,323.954
286.3000,-2.3437E+006,323.952
286.2000,-2.33326E+006,323.948
286.1000,-2.45552E+006,323.936
286.0000,-2.56825E+006,323.935
285.9000,-2.61595E+006,323.929
285.8000,-2.55798E+006,323.926
285.7000,-2.48163E+006,323.904
285.6000,-2.29397E+006,323.887
285.5000,-2.1961E+006,323.886
285.4000,-2.192E+006,323.882
285.3000,-2.155E+006,323.884
285.2000,-2.27622E+006,323.862
285.1000,-2.35894E+006,323.844
285.0000,-2.30421E+006,323.849
284.9000,-2.30745E+006,323.848
284.8000,-2.33989E+006,323.853
284.7000,-2.33866E+006,323.832
284.6000,-2.27593E+006,323.817
284.5000,-2.13352E+006,323.824
284.4000,-2.01903E+006,323.832
284.3000,-1.8858E+006,323.845
284.2000,-1.8676E+006,323.833
284.1000,-1.86969E+006,323.824
284.0000,-1.84966E+006,323.805
283.9000,-1.83169E+006,323.809
283.8000,-1.88559E+006,323.821
283.7000,-1.95543E+006,323.808
283.6000,-2.07705E+006,323.792
283.5000,-2.14332E+006,323.775
283.4000,-2.1673E+006,323.763
283.3000,-2.04345E+006,323.772
283.2000,-2.14179E+006,323.781
283.1000,-2.25613E+006,323.78
283.0000,-2.16893E+006,323.772
282.9000,-2.24702E+006,323.765
282.8000,-2.1809E+006,323.76
282.7000,-2.08072E+006,323.771
282.6000,-2.00251E+006,323.786
282.5000,-2.06048E+006,323.788
282.4000,-1.93807E+006,323.787
282.3000,-1.77849E+006,323.786
282.2000,-1.74166E+006,323.78
282.1000,-1.77033E+006,323.794
282.0000,-1.87898E+006,323.809
281.9000,-2.06497E+006,323.812
281.8000,-2.18737E+006,323.807
281.7000,-2.27919E+006,323.801
281.6000,-2.36399E+006,323.798
281.5000,-2.57896E+006,323.792
281.4000,-2.71437E+006,323.811
281.3000,-2.74082E+006,323.817
281.2000,-2.55134E+006,323.815
281.1000,-2.43108E+006,323.813
281.0000,-2.37501E+006,323.812
280.9000,-2.32135E+006,323.809
280.8000,-2.25935E+006,323.8
280.7000,-2.29271E+006,323.797
280.6000,-2.25259E+006,323.802
280.5000,-2.19919E+006,323.793
280.4000,-2.34353E+006,323.785
280.3000,-2.43504E+006,323.773
280.2000,-2.52086E+006,323.762
280.1000,-2.5731E+006,323.753
280.0000,-2.54293E+006,323.744
279.9000,-2.47184E+006,323.732
279.8000,-2.36246E+006,323.71
279.7000,-2.28031E+006,323.703
279.6000,-2.26565E+006,323.693
279.5000,-2.15687E+006,323.693
279.4000,-2.12072E+006,323.693
279.3000,-2.12638E+006,323.693
279.2000,-2.2593E+006,323.694
279.1000,-2.34177E+006,323.697
279.0000,-2.38379E+006,323.701
278.9000,-2.45984E+006,323.699
278.8000,-2.45009E+006,323.71
278.7000,-2.44083E+006,323.719
278.6000,-2.28579E+006,323.731
278.5000,-2.22468E+006,323.74
278.4000,-2.05133E+006,323.754
278.3000,-1.96713E+006,323.77
278.2000,-1.79652E+006,323.788
278.1000,-1.63543E+006,323.798
278.0000,-1.50316E+006,323.794
277.9000,-1.42624E+006,323.787
277.8000,-1.5125E+006,323.777
277.7000,-1.66452E+006,323.77
277.6000,-1.76601E+006,323.78
277.5000,-1.7908E+006,323.788
277.4000,-1.88012E+006,323.795
277.3000,-2.02005E+006,323.804
277.2000,-2.03208E+006,323.819
277.1000,-2.14546E+006,323.834
277.0000,-2.07886E+006,323.851
276.9000,-1.8162E+006,323.867
276.8000,-1.62719E+006,323.869
276.7000,-1.53272E+006,323.869
276.6000,-1.603E+006,323.87
276.5000,-1.7833E+006,323.868
276.4000,-2.03355E+006,323.866
276.3000,-2.0491E+006,323.866
276.2000,-2.06658E+006,323.869
276.1000,-2.11667E+006,323.877
276.0000,-2.16804E+006,323.904
275.9000,-2.19784E+006,323.925
275.8000,-2.11935E+006,323.942
275.7000,-2.06087E+006,323.964
275.6000,-1.91842E+006,323.986
275.5000,-1.97996E+006,324.006
275.4000,-2.07419E+006,324.024
275.3000,-2.21707E+006,324.042
275.2000,-2.26755E+006,324.043
275.1000,-2.09154E+006,324.045
275.0000,-2.13368E+006,324.047
274.9000,-2.0841E+006,324.055
274.8000,-1.9759E+006,324.06
274.7000,-1.90285E+006,324.067
274.6000,-1.76471E+006,324.077
274.5000,-1.74106E+006,324.084
274.4000,-1.79533E+006,324.091
274.3000,-1.88561E+006,324.104
274.2000,-1.95083E+006,324.118
274.1000,-1.92104E+006,324.134
274.0000,-1.94236E+006,324.145
273.9000,-1.82832E+006,324.16
273.8000,-1.74774E+006,324.172
273.7000,-1.58707E+006,324.184
273.6000,-1.46146E+006,324.194
273.5000,-1.40083E+006,324.203
273.4000,-1.45876E+006,324.212
273.3000,-1.60525E+006,324.222
273.2000,-1.65785E+006,324.234
273.1000,-1.74734E+006,324.249
273.0000,-1.77835E+006,324.26
272.9000,-1.84457E+006,324.275
272.8000,-1.91852E+006,324.289
272.7000,-1.91511E+006,324.308
272.6000,-1.85855E+006,324.325
272.5000,-1.77064E+006,324.343
272.4000,-1.67606E+006,324.362
272.3000,-1.58755E+006,324.378
272.2000,-1.59231E+006,324.4
272.1000,-1.56715E+006,324.418
272.0000,-1.45924E+006,324.435
271.9000,-1.38467E+006,324.452
271.8000,-1.30456E+006,324.469
271.7000,-1.16515E+006,324.486
271.6000,-998940,324.498
271.5000,-981344,324.508
271.4000,-961597,324.517
271.3000,-1.13695E+006,324.524
271.2000,-1.29753E+006,324.536
271.1000,-1.43546E+006,324.546
271.0000,-1.54421E+006,324.552
270.9000,-1.74344E+006,324.535
270.8000,-1.79672E+006,324.519
270.7000,-1.82917E+006,324.508
270.6000,-1.83151E+006,324.501
270.5000,-1.73668E+006,324.497
270.4000,-1.7376E+006,324.492
270.3000,-1.72394E+006,324.491
270.2000,-1.77477E+006,324.484
270.1000,-1.6657E+006,324.497
270.0000,-1.70056E+006,324.514
269.9000,-1.81408E+006,324.528
269.8000,-1.98258E+006,324.541
269.7000,-2.0381E+006,324.552
269.6000,-1.9712E+006,324.564
269.5000,-1.89023E+006,324.576
269.4000,-1.78775E+006,324.58
269.3000,-1.73344E+006,324.59
269.2000,-1.68941E+006,324.601
269.1000,-1.53073E+006,324.618
269.0000,-1.43114E+006,324.636
268.9000,-1.37606E+006,324.659
268.8000,-1.3939E+006,324.679
268.7000,-1.4319E+006,324.702
268.6000,-1.45001E+006,324.743
268.5000,-1.47569E+006,324.795
268.4000,-1.59061E+006,324.844
268.3000,-1.67349E+006,324.881
268.2000,-1.59531E+006,324.919
268.1000,-1.58111E+006,324.951
268.0000,-1.50189E+006,324.993
267.9000,-1.45977E+006,325.032
267.8000,-1.46789E+006,325.071
267.7000,-1.54033E+006,325.102
267.6000,-1.67801E+006,325.139
267.5000,-1.61001E+006,325.185
267.4000,-1.79395E+006,325.218
267.3000,-1.92237E+006,325.254
267.2000,-2.0041E+006,325.283
267.1000,-2.02432E+006,325.324
267.0000,-2.02837E+006,325.364
266.9000,-2.01654E+006,325.407
266.8000,-1.83454E+006,325.443
266.7000,-1.90474E+006,325.471
266.6000,-1.98431E+006,325.52
266.5000,-1.88911E+006,325.569
266.4000,-1.83321E+006,325.63
266.3000,-1.7061E+006,325.684
266.2000,-1.43224E+006,325.74
266.1000,-1.28733E+006,325.787
266.0000,-1.17876E+006,325.828
265.9000,-953892,325.882
265.8000,-697400,325.934
265.7000,-547122,325.998
265.6000,-516330,326.056
265.5000,-575760,326.113
265.4000,-861466,326.152
265.3000,-1.12918E+006,326.187
265.2000,-1.24047E+006,326.242
265.1000,-1.46184E+006,326.293
265.0000,-1.64973E+006,326.346
264.9000,-1.78735E+006,326.399
264.8000,-1.83021E+006,326.433
264.7000,-1.93637E+006,326.477
264.6000,-2.07652E+006,326.528
264.5000,-2.1893E+006,326.599
264.4000,-2.13999E+006,326.67
264.3000,-2.07143E+006,326.728
264.2000,-1.80051E+006,326.794
264.1000,-1.72759E+006,326.853
264.0000,-1.84327E+006,326.93
263.9000,-1.88861E+006,327.007
263.8000,-1.77664E+006,327.073
263.7000,-1.61463E+006,327.135
263.6000,-1.52929E+006,327.195
263.5000,-1.61171E+006,327.266
263.4000,-1.90437E+006,327.335
263.3000,-2.18527E+006,327.383
263.2000,-2.19713E+006,327.436
263.1000,-2.17474E+006,327.495
263.0000,-2.26791E+006,327.564
262.9000,-2.29107E+006,327.626
262.8000,-2.31504E+006,327.685
262.7000,-2.25743E+006,327.738
262.6000,-2.26913E+006,327.793
262.5000,-2.17027E+006,327.875
262.4000,-2.1126E+006,327.949
262.3000,-2.00485E+006,328.022
262.2000,-1.84171E+006,328.094
262.1000,-1.78541E+006,328.168
262.0000,-1.82434E+006,328.234
261.9000,-1.8583E+006,328.305
261.8000,-1.77717E+006,328.384
261.7000,-1.7717E+006,328.437
261.6000,-1.77223E+006,328.506
261.5000,-1.60256E+006,328.579
261.4000,-1.45862E+006,328.647
261.3000,-1.35925E+006,328.705
261.2000,-1.30664E+006,328.776
261.1000,-1.20765E+006,328.862
261.0000,-1.19707E+006,328.95
260.9000,-1.17702E+006,329.04
260.8000,-1.10419E+006,329.128
260.7000,-1.01714E+006,329.212
260.6000,-993225,329.289
260.5000,-990275,329.375
260.4000,-1.10114E+006,329.468
260.3000,-1.29674E+006,329.552
260.2000,-1.35778E+006,329.617
260.1000,-1.26892E+006,329.683
260.0000,-1.32573E+006,329.759
259.9000,-1.4391E+006,329.835
259.8000,-1.63541E+006,329.917
259.7000,-1.75434E+006,329.998
259.6000,-1.88404E+006,330.065
259.5000,-1.79542E+006,330.139
259.4000,-1.8961E+006,330.223
259.3000,-2.10778E+006,330.306
259.2000,-2.14023E+006,330.391
259.1000,-2.25025E+006,330.477
259.0000,-2.29124E+006,330.549
258.9000,-2.42552E+006,330.618
258.8000,-2.38338E+006,330.706
258.7000,-2.21135E+006,330.783
258.6000,-1.91475E+006,330.868
258.5000,-1.56962E+006,330.963
258.4000,-1.50501E+006,331.04
258.3000,-1.55603E+006,331.113
258.2000,-1.44454E+006,331.198
258.1000,-1.23301E+006,331.284
258.0000,-1.19706E+006,331.371
257.9000,-1.26166E+006,331.466
257.8000,-1.32539E+006,331.557
257.7000,-1.5495E+006,331.636
257.6000,-1.62747E+006,331.74
257.5000,-1.50263E+006,331.841
257.4000,-1.5291E+006,331.938
257.3000,-1.68138E+006,332.021
257.2000,-1.73838E+006,332.106
257.1000,-1.82118E+006,332.192
257.0000,-1.81834E+006,332.271
256.9000,-1.86415E+006,332.347
256.8000,-1.83991E+006,332.409
256.7000,-1.88733E+006,332.476
256.6000,-1.91496E+006,332.553
256.5000,-1.87972E+006,332.63
256.4000,-1.98204E+006,332.711
256.3000,-1.90776E+006,332.78
256.2000,-1.88161E+006,332.856
256.1000,-1.82004E+006,332.942
256.0000,-1.71075E+006,333.021
255.9000,-1.64251E+006,333.099
255.8000,-1.56767E+006,333.155
255.7000,-1.52787E+006,333.23
255.6000,-1.33921E+006,333.318
255.5000,-1.21778E+006,333.401
255.4000,-1.05693E+006,333.482
255.3000,-924118,333.551
255.2000,-871178,333.635
255.1000,-689754,333.713
255.0000,-671759,333.795
254.9000,-705100,333.867
254.8000,-718316,333.933
254.7000,-845135,334.012
254.6000,-958094,334.101
254.5000,-1.10554E+006,334.205
254.4000,-1.29798E+006,334.295
254.3000,-1.38743E+006,334.389
254.2000,-1.52846E+006,334.483
254.1000,-1.64826E+006,334.59
254.0000,-1.68561E+006,334.697
253.9000,-1.61051E+006,334.807
253.8000,-1.51208E+006,334.895
253.7000,-1.55186E+006,334.968
253.6000,-1.56272E+006,335.04
253.5000,-1.46703E+006,335.127
253.4000,-1.33774E+006,335.207
253.3000,-1.21274E+006,335.29
253.2000,-1.24195E+006,335.361
253.1000,-1.27506E+006,335.422
253.0000,-1.46938E+006,335.481
252.9000,-1.47544E+006,335.557
252.8000,-1.30662E+006,335.64
252.7000,-1.29395E+006,335.719
252.6000,-1.4452E+006,335.798
252.5000,-1.50526E+006,335.882
252.4000,-1.36312E+006,335.961
252.3000,-1.3029E+006,336.044
252.2000,-1.08365E+006,336.131
252.1000,-896514,336.222
252.0000,-938425,336.3
251.9000,-1.13838E+006,336.372
251.8000,-1.2267E+006,336.449
251.7000,-1.18174E+006,336.523
251.6000,-1.37954E+006,336.604
251.5000,-1.46183E+006,336.687
251.4000,-1.51564E+006,336.778
251.3000,-1.75905E+006,336.86
251.2000,-1.76687E+006,336.943
251.1000,-1.58118E+006,337.038
251.0000,-1.4026E+006,337.131
250.9000,-1.29603E+006,337.225
250.8000,-1.41417E+006,337.307
250.7000,-1.3302E+006,337.409
250.6000,-1.23786E+006,337.503
250.5000,-1.07591E+006,337.592
250.4000,-1.1355E+006,337.688
250.3000,-1.23632E+006,337.773
250.2000,-1.43463E+006,337.86
250.1000,-1.59075E+006,337.943
250.0000,-1.44653E+006,338.037
249.9000,-1.45509E+006,338.123
249.8000,-1.64059E+006,338.196
249.7000,-1.69626E+006,338.283
249.6000,-1.69459E+006,338.362
249.5000,-1.49567E+006,338.448
249.4000,-1.29359E+006,338.548
249.3000,-1.10109E+006,338.649
249.2000,-844673,338.749
249.1000,-776258,338.849
249.0000,-692025,338.944
248.9000,-586343,339.037
248.8000,-446331,339.132
248.7000,-668570,339.226
248.6000,-846361,339.309
248.5000,-957366,339.393
248.4000,-1.13204E+006,339.472
248.3000,-1.33281E+006,339.539
248.2000,-1.38771E+006,339.615
248.1000,-1.55072E+006,339.701
248.0000,-1.76132E+006,339.789
247.9000,-1.66175E+006,339.899
247.8000,-1.55796E+006,339.998
247.7000,-1.50091E+006,340.086
247.6000,-1.59101E+006,340.179
247.5000,-1.65153E+006,340.27
247.4000,-1.68866E+006,340.35
247.3000,-1.63316E+006,340.421
247.2000,-1.59553E+006,340.496
247.1000,-1.57823E+006,340.552
247.0000,-1.41926E+006,340.599
246.9000,-1.25947E+006,340.661
246.8000,-1.19432E+006,340.717
246.7000,-1.02653E+006,340.786
246.6000,-812179,340.861
246.5000,-718180,340.942
246.4000,-760727,341.014
246.3000,-781609,341.087
246.2000,-966917,341.171
246.1000,-1.22833E+006,341.268
246.0000,-1.42667E+006,341.372
245.9000,-1.5231E+006,341.473
245.8000,-1.42145E+006,341.581
245.7000,-1.4669E+006,341.698
245.6000,-1.43974E+006,341.818
245.5000,-1.54087E+006,341.936
245.4000,-1.67298E+006,342.049
245.3000,-1.72158E+006,342.154
245.2000,-1.56393E+006,342.269
245.1000,-1.39604E+006,342.387
245.0000,-1.43331E+006,342.496
244.9000,-1.52625E+006,342.597
244.8000,-1.52809E+006,342.701
244.7000,-1.49748E+006,342.812
244.6000,-1.29645E+006,342.924
244.5000,-1.12825E+006,343.043
244.4000,-1.10829E+006,343.157
244.3000,-1.11517E+006,343.262
244.2000,-1.35001E+006,343.36
244.1000,-1.34429E+006,343.472
244.0000,-1.40989E+006,343.581
243.9000,-1.39907E+006,343.687
243.8000,-1.33379E+006,343.793
243.7000,-1.28525E+006,343.9
243.6000,-1.27465E+006,343.998
243.5000,-1.53832E+006,344.094
243.4000,-1.7176E+006,344.211
243.3000,-1.73949E+006,344.322
243.2000,-1.93648E+006,344.427
243.1000,-1.74009E+006,344.539
243.0000,-1.68351E+006,344.652
242.9000,-1.77664E+006,344.768
242.8000,-1.89783E+006,344.883
242.7000,-1.7404E+006,344.995
242.6000,-1.53568E+006,345.098
242.5000,-1.3898E+006,345.207
242.4000,-1.30719E+006,345.327
242.3000,-1.2858E+006,345.445
242.2000,-1.34337E+006,345.567
242.1000,-1.51748E+006,345.686
242.0000,-1.62521E+006,345.8
241.9000,-1.63104E+006,345.922
241.8000,-1.6643E+006,346.058
241.7000,-1.68281E+006,346.189
241.6000,-1.67168E+006,346.309
241.5000,-1.60059E+006,346.431
241.4000,-1.63518E+006,346.558
241.3000,-1.53138E+006,346.693
241.2000,-1.30566E+006,346.827
241.1000,-1.1968E+006,346.966
241.0000,-1.21228E+006,347.097
240.9000,-1.04223E+006,347.231
240.8000,-826387,347.379
240.7000,-703923,347.531
240.6000,-823341,347.677
240.5000,-901487,347.812
240.4000,-1.07347E+006,347.942
240.3000,-1.18392E+006,348.076
240.2000,-1.20494E+006,348.212
240.1000,-1.23496E+006,348.355
240.0000,-1.22056E+006,348.495
239.9000,-1.12146E+006,348.64
239.8000,-1.28997E+006,348.782
239.7000,-1.12902E+006,348.931
239.6000,-911367,349.096
239.5000,-729442,349.27
239.4000,-600602,349.449
239.3000,-567389,349.618
239.2000,-702178,349.783
239.1000,-886723,349.945
239.0000,-649955,350.111
238.9000,-476056,350.28
238.8000,-539749,350.443
238.7000,-600179,350.604
238.6000,-657148,350.754
238.5000,-776922,350.907
238.4000,-887282,351.063
238.3000,-943325,351.216
238.2000,-1.04898E+006,351.372
238.1000,-1.09867E+006,351.534
238.0000,-1.25386E+006,351.703
237.9000,-1.20044E+006,351.876
237.8000,-1.17039E+006,352.05
237.7000,-1.30825E+006,352.222
237.6000,-1.31511E+006,352.399
237.5000,-1.25878E+006,352.584
237.4000,-1.3897E+006,352.769
237.3000,-1.53598E+006,352.951
237.2000,-1.48426E+006,353.128
237.1000,-1.58375E+006,353.297
237.0000,-1.51866E+006,353.477
236.9000,-1.27797E+006,353.664
236.8000,-1.10369E+006,353.852
236.7000,-1.10684E+006,354.038
236.6000,-866451,354.216
236.5000,-671498,354.394
236.4000,-689857,354.577
236.3000,-862655,354.764
236.2000,-1.08982E+006,354.949
236.1000,-1.35649E+006,355.127
236.0000,-1.47337E+006,355.311
235.9000,-1.46088E+006,355.498
235.8000,-1.73727E+006,355.69
235.7000,-2.0109E+006,355.881
235.6000,-2.11896E+006,356.067
235.5000,-1.89877E+006,356.257
235.4000,-1.76308E+006,356.452
235.3000,-1.61871E+006,356.643
235.2000,-1.594E+006,356.833
235.1000,-1.65694E+006,357.018
235.0000,-1.65938E+006,357.201
234.9000,-1.62721E+006,357.384
234.8000,-1.47601E+006,357.571
234.7000,-1.45453E+006,357.764
234.6000,-1.56482E+006,357.945
234.5000,-1.56799E+006,358.134
234.4000,-1.61644E+006,358.323
234.3000,-1.48625E+006,358.513
234.2000,-1.37879E+006,358.71
234.1000,-1.28191E+006,358.914
234.0000,-1.38247E+006,359.111
233.9000,-1.34032E+006,359.308
233.8000,-1.37083E+006,359.511
233.7000,-1.38967E+006,359.714
233.6000,-1.58553E+006,359.917
233.5000,-1.76292E+006,360.127
233.4000,-1.78475E+006,360.328
233.3000,-1.73696E+006,360.532
233.2000,-1.67262E+006,360.745
233.1000,-1.56364E+006,360.955
233.0000,-1.42137E+006,361.166
232.9000,-1.31475E+006,361.37
232.8000,-989051,361.582
232.7000,-650986,361.8
232.6000,-709928,362.016
232.5000,-859943,362.231
232.4000,-938516,362.433
232.3000,-999472,362.642
232.2000,-1.1611E+006,362.846
232.1000,-1.24663E+006,363.058
232.0000,-1.40913E+006,363.264
231.9000,-1.68647E+006,363.468
231.8000,-1.64124E+006,363.665
231.7000,-1.4426E+006,363.867
231.6000,-1.50478E+006,364.075
231.5000,-1.65503E+006,364.271
231.4000,-1.83399E+006,364.472
231.3000,-1.84459E+006,364.673
231.2000,-1.8216E+006,364.88
231.1000,-1.77448E+006,365.082
231.0000,-1.7569E+006,365.286
230.9000,-1.88036E+006,365.494
230.8000,-1.79708E+006,365.697
230.7000,-1.52955E+006,365.916
230.6000,-1.27091E+006,366.133
230.5000,-988102,366.354
230.4000,-900580,366.57
230.3000,-831591,366.79
230.2000,-998186,367.006
230.1000,-895457,367.229
230.0000,-648369,367.451
229.9000,-541932,367.664
229.8000,-661345,367.874
229.7000,-879187,368.079
229.6000,-1.0041E+006,368.283
229.5000,-891448,368.479
229.4000,-734199,368.669
229.3000,-737086,368.853
229.2000,-850344,369.032
229.1000,-1.21355E+006,369.209
229.0000,-1.45243E+006,369.393
228.9000,-1.45173E+006,369.574
228.8000,-1.46618E+006,369.756
228.7000,-1.61714E+006,369.95
228.6000,-1.72671E+006,370.157
228.5000,-1.83405E+006,370.371
228.4000,-2.04939E+006,370.597
228.3000,-2.00402E+006,370.833
228.2000,-2.04981E+006,371.062
228.1000,-2.20595E+006,371.304
228.0000,-2.2146E+006,371.55
227.9000,-2.25486E+006,371.789
227.8000,-2.37678E+006,372.023
227.7000,-2.36886E+006,372.264
227.6000,-2.23773E+006,372.5
227.5000,-2.09318E+006,372.727
227.4000,-2.11067E+006,372.954
227.3000,-2.1139E+006,373.184
227.2000,-2.00448E+006,373.412
227.1000,-2.03849E+006,373.637
227.0000,-1.85529E+006,373.858
226.9000,-2.00391E+006,374.066
226.8000,-2.29056E+006,374.273
226.7000,-2.38802E+006,374.485
226.6000,-2.52847E+006,374.697
226.5000,-2.27349E+006,374.906
226.4000,-2.30802E+006,375.105
226.3000,-2.48702E+006,375.3
226.2000,-2.68049E+006,375.508
226.1000,-2.64843E+006,375.722
226.0000,-2.42464E+006,375.936
225.9000,-2.3706E+006,376.146
225.8000,-2.13806E+006,376.356
225.7000,-2.0568E+006,376.564
225.6000,-2.14757E+006,376.771
225.5000,-1.80975E+006,376.989
225.4000,-1.89404E+006,377.198
225.3000,-2.02915E+006,377.412
225.2000,-2.00776E+006,377.627
225.1000,-1.76002E+006,377.845
225.0000,-1.45463E+006,378.064
224.9000,-1.28237E+006,378.282
224.8000,-929835,378.503
224.7000,-793412,378.72
224.6000,-490802,378.94
224.5000,-129154,379.155
224.4000,120777,379.363
224.3000,194225,379.569
224.2000,119945,379.772
224.1000,39301.9,379.979
224.0000,-77438.3,380.186
223.9000,-263670,380.391
223.8000,-515079,380.596
223.7000,-633584,380.8
223.6000,-627521,381.011
223.5000,-333879,381.226
223.4000,-187502,381.44
223.3000,-372474,381.637
223.2000,-476982,381.834
223.1000,-394501,382.036
223.0000,-146706,382.238
222.9000,-6844.21,382.441
222.8000,53855,382.639
222.7000,-375858,382.833
222.6000,-658543,383.025
222.5000,-604064,383.23
222.4000,-466720,383.433
222.3000,-420499,383.635
222.2000,-714633,383.834
222.1000,-983323,384.029
222.0000,-1.15328E+006,384.227
221.9000,-827259,384.427
221.8000,-534677,384.623
221.7000,-457735,384.822
221.6000,-420331,385.021
221.5000,-426834,385.224
221.4000,-357236,385.418
221.3000,-280688,385.615
221.2000,-48510.8,385.814
221.1000,-16531.2,386.009
221.0000,-381000,386.2
220.9000,-586331,386.388
220.8000,-880398,386.577
220.7000,-1.29209E+006,386.76
220.6000,-1.505E+006,386.949
220.5000,-1.41698E+006,387.146
220.4000,-1.31595E+006,387.333
220.3000,-1.35524E+006,387.525
220.2000,-1.20679E+006,387.722
220.1000,-1.28665E+006,387.915
220.0000,-1.50501E+006,388.107
219.9000,-1.26841E+006,388.306
219.8000,-1.07213E+006,388.502
219.7000,-879875,388.695
219.6000,-583639,388.89
219.5000,-663806,389.083
219.4000,-897391,389.274
219.3000,-813071,389.466
219.2000,-549178,389.658
219.1000,-526145,389.847
219.0000,-479629,390.04
218.9000,-754946,390.227
218.8000,-1.06373E+006,390.417
218.7000,-1.18694E+006,390.605
218.6000,-1.05584E+006,390.795
218.5000,-1.13607E+006,390.98
218.4000,-1.41549E+006,391.17
218.3000,-1.68806E+006,391.352
218.2000,-2.13254E+006,391.536
218.1000,-2.45645E+006,391.717
218.0000,-2.53474E+006,391.905
217.9000,-2.62512E+006,392.093
217.8000,-2.72818E+006,392.273
217.7000,-2.98304E+006,392.458
217.6000,-2.92194E+006,392.64
217.5000,-2.64E+006,392.831
217.4000,-2.24885E+006,393.02
217.3000,-1.97318E+006,393.204
217.2000,-1.91258E+006,393.39
217.1000,-1.83372E+006,393.574
217.0000,-1.86485E+006,393.76
216.9000,-1.94304E+006,393.947
216.8000,-2.11481E+006,394.131
216.7000,-2.3692E+006,394.309
216.6000,-2.44556E+006,394.493
216.5000,-2.17667E+006,394.685
216.4000,-1.98483E+006,394.87
216.3000,-2.02235E+006,395.049
216.2000,-2.13744E+006,395.232
216.1000,-2.10845E+006,395.417
216.0000,-1.90514E+006,395.603
215.9000,-1.89235E+006,395.784
215.8000,-1.70914E+006,395.965
215.7000,-1.96782E+006,396.143
215.6000,-2.18555E+006,396.325
215.5000,-2.25486E+006,396.512
215.4000,-2.07861E+006,396.699
215.3000,-1.83108E+006,396.884
215.2000,-1.60791E+006,397.066
215.1000,-1.33628E+006,397.26
215.0000,-1.33093E+006,397.45
214.9000,-1.33259E+006,397.641
214.8000,-1.26592E+006,397.831
214.7000,-968007,398.023
214.6000,-820111,398.214
214.5000,-1.03046E+006,398.403
214.4000,-1.19839E+006,398.595
214.3000,-1.33867E+006,398.786
214.2000,-1.31047E+006,398.978
214.1000,-1.54856E+006,399.167
214.0000,-1.46599E+006,399.359
213.9000,-1.50504E+006,399.552
213.8000,-1.55242E+006,399.743
213.7000,-1.60227E+006,399.939
213.6000,-1.34235E+006,400.138
213.5000,-1.30256E+006,400.335
213.4000,-1.25675E+006,400.534
213.3000,-814851,400.738
213.2000,-610065,400.947
213.1000,-711511,401.15
213.0000,-1.06804E+006,401.355
212.9000,-1.22753E+006,401.562
212.8000,-1.36003E+006,401.764
212.7000,-1.33593E+006,401.972
212.6000,-1.20662E+006,402.179
212.5000,-1.34819E+006,402.387
212.4000,-1.51599E+006,402.594
212.3000,-1.40207E+006,402.803
212.2000,-925818,403.016
212.1000,-455553,403.229
212.0000,-105438,403.451
211.9000,45346.8,403.671
211.8000,75319.8,403.886
211.7000,-64751.1,404.101
211.6000,-327668,404.315
211.5000,-289376,404.534
211.4000,-504078,404.753
211.3000,-953152,404.972
211.2000,-1.1462E+006,405.187
211.1000,-1.55525E+006,405.402
211.0000,-1.63954E+006,405.623
210.9000,-1.41915E+006,405.845
210.8000,-1.33798E+006,406.066
210.7000,-917255,406.296
210.6000,-503943,406.524
210.5000,-212162,406.751
210.4000,-302431,406.976
210.3000,-352831,407.206
210.2000,-245915,407.434
210.1000,-299772,407.668
210.0000,-57678.5,407.904
209.9000,-233714,408.136
209.8000,-508342,408.364
209.7000,-720458,408.598
209.6000,-886324,408.831
209.5000,-686103,409.071
209.4000,-926101,409.308
209.3000,-1.28883E+006,409.54
209.2000,-1.8372E+006,409.78
209.1000,-2.26246E+006,410.018
209.0000,-2.88097E+006,410.254
208.9000,-3.37102E+006,410.495
208.8000,-3.30622E+006,410.739
208.7000,-2.82748E+006,410.99
208.6000,-2.36122E+006,411.244
208.5000,-1.94663E+006,411.504
208.4000,-1.46228E+006,411.757
208.3000,-1.06739E+006,412.015
208.2000,-563655,412.279
208.1000,-94315.4,412.537
208.0000,-73767.1,412.791
207.9000,-558356,413.042
207.8000,-865267,413.297
207.7000,-1.11369E+006,413.548
207.6000,-1.24737E+006,413.803
207.5000,-1.64697E+006,414.051
207.4000,-1.75658E+006,414.299
207.3000,-1.90078E+006,414.548
207.2000,-1.96491E+006,414.796
207.1000,-1.57326E+006,415.048
207.0000,-1.28573E+006,415.297
206.9000,-1.29325E+006,415.543
206.8000,-1.17604E+006,415.79
206.7000,-905866,416.04
206.6000,-669548,416.295
206.5000,-250290,416.545
206.4000,-46946.9,416.798
206.3000,14899.2,417.053
206.2000,-402007,417.292
206.1000,-270153,417.536
206.0000,-186701,417.778
205.9000,-499524,418.016
205.8000,-518150,418.257
205.7000,-843440,418.495
205.6000,-933831,418.74
205.5000,-1.25974E+006,418.979
205.4000,-741688,419.234
205.3000,-565876,419.484
205.2000,-912477,419.735
205.1000,-944368,419.99
205.0000,-863792,420.242
204.9000,-856532,420.497
204.8000,-1.31375E+006,420.745
204.7000,-1.37534E+006,421.003
204.6000,-1.69432E+006,421.254
204.5000,-2.32099E+006,421.507
204.4000,-2.56271E+006,421.76
204.3000,-2.21695E+006,422.019
204.2000,-2.27188E+006,422.28
204.1000,-2.34859E+006,422.536
204.0000,-2.1162E+006,422.801
203.9000,-1.73175E+006,423.063
203.8000,-1.40684E+006,423.324
203.7000,-740235,423.591
203.6000,30529,423.862
203.5000,215613,424.129
203.4000,272627,424.388
203.3000,326722,424.653
203.2000,572851,424.925
203.1000,740377,425.194
203.0000,790273,425.464
202.9000,945523,425.738
202.8000,751311,426.007
202.7000,712905,426.278
202.6000,779700,426.551
202.5000,752391,426.824
202.4000,129321,427.084
202.3000,-302315,427.352
202.2000,-732671,427.619
202.1000,-1.10913E+006,427.884
202.0000,-1.52357E+006,428.149
201.9000,-1.543E+006,428.422
201.8000,-1.39143E+006,428.705
201.7000,-1.19383E+006,428.987
201.6000,-542574,429.277
201.5000,27359.2,429.567
201.4000,93223.5,429.853
201.3000,203628,430.145
201.2000,657099,430.445
201.1000,664481,430.74
201.0000,612662,431.032
200.9000,360309,431.323
200.8000,36932.1,431.618
200.7000,-711115,431.909
200.6000,-719223,432.21
200.5000,-773214,432.513
200.4000,-1.33668E+006,432.814
200.3000,-1.66139E+006,433.117
200.2000,-1.81144E+006,433.426
200.1000,-1.75601E+006,433.732
200.0000,-1.79637E+006,434.039
199.9000,-1.36196E+006,434.349
199.8000,-949686,434.655
199.7000,-583646,434.954
199.6000,146443,435.252
199.5000,445121,435.55
199.4000,769998,435.841
199.3000,510573,436.123
199.2000,580128,436.41
199.1000,505947,436.693
199.0000,157293,436.982
198.9000,-410052,437.276
198.8000,-1.04385E+006,437.575
198.7000,-1.93371E+006,437.876
198.6000,-2.66753E+006,438.182
198.5000,-2.43319E+006,438.513
198.4000,-2.63255E+006,438.845
198.3000,-3.01247E+006,439.178
198.2000,-2.93611E+006,439.528
198.1000,-2.58477E+006,439.889
198.0000,-2.04175E+006,440.27
197.9000,-1.51832E+006,440.666
197.8000,-1.05253E+006,441.074
197.7000,-986532,441.487
197.6000,-653395,441.911
197.5000,-250187,442.335
197.4000,-218955,442.745
197.3000,-123962,443.139
197.2000,-172310,443.497
197.1000,20284.1,443.816
197.0000,258972,444.102
196.9000,51798,444.359
196.8000,-19206.6,444.597
196.7000,281811,444.833
196.6000,481970,445.069
196.5000,845727,445.319
196.4000,794910,445.592
196.3000,620125,445.902
196.2000,150042,446.252
196.1000,237404,446.643
196.0000,595995,447.078
195.9000,361421,447.56
195.8000,396692,448.11
195.7000,-107538,448.728
195.6000,-180200,449.437
195.5000,-159215,450.236
195.4000,-192525,451.105
195.3000,74961.2,452.035
195.2000,-125865,452.994
195.1000,-301016,453.948
195.0000,-257755,454.85
194.9000,-21854.4,455.648
194.8000,-30689.6,456.281
194.7000,-640220,456.729
194.6000,-522603,457.024
194.5000,-594426,457.17
194.4000,-823054,457.2
194.3000,-1.04196E+006,457.15
194.2000,-1.46223E+006,457.062
194.1000,-1.70635E+006,457.011
194.0000,-2.26145E+006,457.052
193.9000,-1.95995E+006,457.248
193.8000,-1.93297E+006,457.603
193.7000,-1.82593E+006,458.148
193.6000,-1.12994E+006,458.915
193.5000,-1.06193E+006,459.912
193.4000,-1.17187E+006,461.188
193.3000,-738526,462.746
193.2000,-384197,464.555
193.1000,-333264,466.566
193.0000,1892.83,468.724
192.9000,395056,470.946
192.8000,28569.7,473.103
192.7000,-593666,475.067
192.6000,-355296,476.667
192.5000,-43943.5,477.778
192.4000,155511,478.379
192.3000,622646,478.498
192.2000,259118,478.192
192.1000,-337516,477.542
192.0000,-440218,476.669
191.9000,-129598,475.721
191.8000,292773,474.896
191.7000,465751,474.389
191.6000,194325,474.291
191.5000,432425,474.641
191.4000,1.07418E+006,475.458
191.3000,1.82441E+006,476.79
191.2000,1.82618E+006,478.646
191.1000,1.15531E+006,481.009
191.0000,797040,483.82
190.9000,908836,486.938
190.8000,1.59246E+006,490.234
190.7000,1.36859E+006,493.569
190.6000,617654,496.796
190.5000,-297563,499.695
190.4000,-1.27898E+006,502.03
190.3000,-1.51435E+006,503.64
190.2000,-1.72094E+006,504.484
190.1000,-2.7043E+006,504.617
190.0000,-4.00504E+006,504.171

##### Extended Information
[Comments]
Sample name,D2_0.4uM
Comment,
User,Administrator
Division
Company,CSIR-IMTECH

[Detailed Information]
Creation date,3/11/2024 1:01 PM

Data array type,Linear data array * 2
Horizontal axis,Wavelength [nm]
Vertical axis(1),Mol. Ellip.
Vertical axis(2),HT [V]
Start,350 nm
End,190 nm
Data interval,0.1 nm
Data points,1601    

[Measurement Information]
Model Name,J-815
Serial No.,B063061168

Sensitivity,Standard
D.I.T.,1 sec
Bandwidth,
Start Mode,Immediately
Scanning Speed,50 nm/min
Baseline Correction,None
Shutter Control,Manual
Accumulations,3

