TITLE,Doxer_0.6uM
DATA TYPE,
ORIGIN,JASCO
OWNER,
DATE,24/04/08
TIME,15:56:41
SPECTROMETER/DATA SYSTEM,
LOCALE,1033
RESOLUTION,
DELTAX,-0.1
XUNITS,NANOMETERS
YUNITS,Mol. Ellip.
Y2UNITS,HT [V]
FIRSTX,  350.0000
LASTX,  190.0000
NPOINTS,    1601
FIRSTY,-259269.00000
MAXY,774712.31250
MINY,-2105631.75000
XYDATA
350.0000,-259269,166.506
349.9000,-544068,166.306
349.8000,-787445,166.006
349.7000,-1.03516E+006,165.702
349.6000,-1.47722E+006,165.483
349.5000,-1.59774E+006,165.297
349.4000,-1.59708E+006,165.01
349.3000,-1.72864E+006,164.796
349.2000,-1.68868E+006,164.616
349.1000,-1.3255E+006,164.338
349.0000,-889701,164.137
348.9000,-540626,163.962
348.8000,-506078,163.686
348.7000,-408071,163.409
348.6000,-523339,163.208
348.5000,-488875,163.038
348.4000,-625427,162.751
348.3000,-929974,162.536
348.2000,-1.14992E+006,162.351
348.1000,-1.10994E+006,162.071
348.0000,-848321,161.86
347.9000,-841924,161.669
347.8000,-681188,161.386
347.7000,-398221,161.099
347.6000,-253442,160.893
347.5000,-8714.6,160.728
347.4000,2693.89,160.466
347.3000,98074.9,160.272
347.2000,70595.5,160.107
347.1000,178790,159.868
347.0000,52469.8,159.693
346.9000,-451711,159.541
346.8000,-528210,159.305
346.7000,-717601,159.059
346.6000,-996199,158.874
346.5000,-1.36423E+006,158.622
346.4000,-1.49494E+006,158.37
346.3000,-1.5835E+006,158.17
346.2000,-1.60392E+006,157.91
346.1000,-1.37848E+006,157.647
346.0000,-1.16277E+006,157.453
345.9000,-956950,157.287
345.8000,-662564,157.03
345.7000,-537518,156.843
345.6000,-781847,156.678
345.5000,-948980,156.444
345.4000,-800242,156.282
345.3000,-605881,156.147
345.2000,-646305,155.919
345.1000,-629830,155.687
345.0000,-647500,155.52
344.9000,-663151,155.311
344.8000,-387528,155.103
344.7000,-87509.3,154.945
344.6000,81220.7,154.719
344.5000,90284.4,154.487
344.4000,60206,154.313
344.3000,65656.7,154.097
344.2000,-81772,153.872
344.1000,-24534.6,153.701
344.0000,-18537.9,153.473
343.9000,9333.16,153.245
343.8000,27450.4,153.085
343.7000,-56903.6,152.948
343.6000,-171940,152.742
343.5000,-271488,152.593
343.4000,-242662,152.468
343.3000,-143160,152.261
343.2000,-86520.9,152.112
343.1000,-66482.7,151.983
343.0000,-122798,151.792
342.9000,-217194,151.593
342.8000,-181068,151.444
342.7000,-283571,151.236
342.6000,-380965,151.022
342.5000,-496160,150.866
342.4000,-470301,150.676
342.3000,-327769,150.484
342.2000,-453885,150.332
342.1000,-517263,150.135
342.0000,-523731,149.937
341.9000,-396868,149.801
341.8000,-156403,149.627
341.7000,56175.9,149.454
341.6000,132865,149.326
341.5000,138611,149.158
341.4000,216176,148.988
341.3000,358678,148.863
341.2000,403307,148.686
341.1000,278910,148.497
341.0000,20755.2,148.351
340.9000,-164314,148.163
340.8000,-283047,147.969
340.7000,-537250,147.815
340.6000,-751039,147.625
340.5000,-761549,147.439
340.4000,-623315,147.305
340.3000,-591127,147.132
340.2000,-454514,146.962
340.1000,-132343,146.841
340.0000,108907,146.685
339.9000,156341,146.526
339.8000,310062,146.409
339.7000,203215,146.257
339.6000,-20794.5,146.103
339.5000,-194285,145.995
339.4000,-293688,145.842
339.3000,-440148,145.681
339.2000,-838484,145.503
339.1000,-1.01906E+006,145.345
339.0000,-970959,145.185
338.9000,-1.04661E+006,144.995
338.8000,-973982,144.82
338.7000,-1.04174E+006,144.643
338.6000,-1.12538E+006,144.453
338.5000,-1.18797E+006,144.293
338.4000,-1.27432E+006,144.17
338.3000,-1.26708E+006,144.019
338.2000,-1.37493E+006,143.867
338.1000,-1.3535E+006,143.766
338.0000,-1.39173E+006,143.627
337.9000,-1.32317E+006,143.489
337.8000,-1.2745E+006,143.391
337.7000,-1.17216E+006,143.262
337.6000,-1.0836E+006,143.126
337.5000,-996523,143.022
337.4000,-981001,142.889
337.3000,-1.13087E+006,142.744
337.2000,-1.20808E+006,142.585
337.1000,-1.18526E+006,142.451
337.0000,-1.23195E+006,142.311
336.9000,-1.21446E+006,142.156
336.8000,-1.22706E+006,142.02
336.7000,-1.22855E+006,141.885
336.6000,-1.10931E+006,141.738
336.5000,-939368,141.608
336.4000,-818202,141.519
336.3000,-686915,141.393
336.2000,-416436,141.264
336.1000,-180290,141.173
336.0000,-88297.7,141.053
335.9000,-21608.3,140.924
335.8000,-44394.7,140.778
335.7000,-142612,140.644
335.6000,-83804.8,140.508
335.5000,-23469.8,140.368
335.4000,-104348,140.247
335.3000,-138825,140.125
335.2000,-69003.8,139.997
335.1000,-30195.6,139.888
335.0000,-66342,139.813
334.9000,59307.4,139.709
334.8000,121329,139.601
334.7000,64614.1,139.481
334.6000,212782,139.375
334.5000,200446,139.262
334.4000,31563.5,139.125
334.3000,-124893,138.995
334.2000,-144738,138.863
334.1000,-183997,138.721
334.0000,-199738,138.594
333.9000,-212457,138.499
333.8000,-461375,138.38
333.7000,-735925,138.256
333.6000,-747891,138.128
333.5000,-670588,138.023
333.4000,-673377,137.919
333.3000,-752694,137.807
333.2000,-811469,137.709
333.1000,-928165,137.607
333.0000,-904070,137.498
332.9000,-707159,137.406
332.8000,-662103,137.294
332.7000,-599389,137.194
332.6000,-438916,137.09
332.5000,-270079,136.979
332.4000,-210356,136.881
332.3000,-201647,136.781
332.2000,-270898,136.668
332.1000,-356445,136.56
332.0000,-345880,136.449
331.9000,-475391,136.35
331.8000,-622659,136.257
331.7000,-663463,136.151
331.6000,-671009,136.052
331.5000,-532162,135.915
331.4000,-314082,135.806
331.3000,-226130,135.707
331.2000,-267322,135.597
331.1000,-223786,135.499
331.0000,-213084,135.397
330.9000,-284729,135.291
330.8000,-333684,135.198
330.7000,-410317,135.093
330.6000,-491874,135.004
330.5000,-466826,134.917
330.4000,-388725,134.828
330.3000,-335127,134.75
330.2000,-192291,134.634
330.1000,-151696,134.536
330.0000,-78918.6,134.45
329.9000,-63958.2,134.354
329.8000,-283600,134.265
329.7000,-538368,134.138
329.6000,-650699,134.036
329.5000,-744587,133.945
329.4000,-854167,133.843
329.3000,-947864,133.756
329.2000,-973257,133.634
329.1000,-1.03852E+006,133.538
329.0000,-1.02848E+006,133.456
328.9000,-863663,133.369
328.8000,-770264,133.292
328.7000,-760383,133.183
328.6000,-759067,133.101
328.5000,-630961,133.035
328.4000,-589000,132.954
328.3000,-574577,132.883
328.2000,-512643,132.785
328.1000,-444889,132.707
328.0000,-465071,132.638
327.9000,-387780,132.557
327.8000,-334307,132.485
327.7000,-250278,132.393
327.6000,-118237,132.332
327.5000,4943.71,132.281
327.4000,84426.7,132.193
327.3000,194773,132.116
327.2000,255992,132.019
327.1000,214805,131.941
327.0000,217794,131.877
326.9000,61887.8,131.784
326.8000,-193366,131.688
326.7000,-337470,131.577
326.6000,-373093,131.503
326.5000,-486074,131.444
326.4000,-580972,131.357
326.3000,-651942,131.274
326.2000,-816712,131.172
326.1000,-812412,131.104
326.0000,-691654,131.002
325.9000,-499280,130.916
325.8000,-441888,130.835
325.7000,-359936,130.759
325.6000,-383913,130.713
325.5000,-469415,130.612
325.4000,-301009,130.526
325.3000,-217836,130.438
325.2000,-249437,130.385
325.1000,-385647,130.346
325.0000,-591282,130.248
324.9000,-644274,130.146
324.8000,-595966,130.043
324.7000,-516073,129.989
324.6000,-503728,129.961
324.5000,-441108,129.872
324.4000,-486442,129.778
324.3000,-456502,129.693
324.2000,-410272,129.648
324.1000,-316932,129.564
324.0000,-398750,129.476
323.9000,-364212,129.387
323.8000,-338793,129.305
323.7000,-377543,129.264
323.6000,-289865,129.183
323.5000,-291260,129.09
323.4000,-231364,128.995
323.3000,-132685,128.942
323.2000,-42558.6,128.913
323.1000,77516.2,128.824
323.0000,190314,128.726
322.9000,228965,128.628
322.8000,165232,128.576
322.7000,101517,128.483
322.6000,77684.1,128.387
322.5000,-42509.4,128.29
322.4000,-116175,128.193
322.3000,-190681,128.133
322.2000,-340171,128.034
322.1000,-392595,127.928
322.0000,-437385,127.821
321.9000,-442498,127.762
321.8000,-434821,127.665
321.7000,-336994,127.565
321.6000,-367517,127.459
321.5000,-374922,127.362
321.4000,-432273,127.309
321.3000,-523738,127.235
321.2000,-529334,127.163
321.1000,-455063,127.091
321.0000,-392638,127.07
320.9000,-436771,127.02
320.8000,-603502,126.967
320.7000,-661343,126.92
320.6000,-679116,126.871
320.5000,-580758,126.857
320.4000,-413803,126.805
320.3000,-331408,126.747
320.2000,-348009,126.693
320.1000,-314382,126.673
320.0000,-203193,126.622
319.9000,-144689,126.562
319.8000,-118764,126.503
319.7000,-147653,126.441
319.6000,-286477,126.367
319.5000,-299857,126.311
319.4000,-267448,126.249
319.3000,-341215,126.176
319.2000,-378735,126.137
319.1000,-371401,126.071
319.0000,-275901,125.997
318.9000,-173326,125.921
318.8000,-147007,125.877
318.7000,-201070,125.798
318.6000,-268597,125.719
318.5000,-351008,125.649
318.4000,-405221,125.58
318.3000,-417262,125.502
318.2000,-542425,125.441
318.1000,-619644,125.379
318.0000,-572725,125.323
317.9000,-532939,125.302
317.8000,-501831,125.259
317.7000,-486216,125.208
317.6000,-467848,125.145
317.5000,-520262,125.114
317.4000,-456368,125.061
317.3000,-394365,125.005
317.2000,-374600,124.942
317.1000,-342474,124.878
317.0000,-389235,134.105
316.9000,-406025,140.665
316.8000,-385079,142.105
316.7000,-319436,142.402
316.6000,-271812,142.426
316.5000,-253021,142.4
316.4000,-199539,142.357
316.3000,-158447,142.305
316.2000,-48268.8,138.302
316.1000,347.426,127.488
316.0000,-10716.9,125.019
315.9000,12142.5,124.388
315.8000,-49742.1,124.213
315.7000,-63115.6,124.116
315.6000,-101819,124.048
315.5000,-172530,123.982
315.4000,-349409,123.941
315.3000,-387992,123.877
315.2000,-334229,123.81
315.1000,-272390,123.746
315.0000,-254044,123.686
314.9000,-258052,123.623
314.8000,-309735,123.571
314.7000,-316174,123.513
314.6000,-295809,123.457
314.5000,-348625,123.401
314.4000,-416519,123.357
314.3000,-449338,123.31
314.2000,-473352,123.263
314.1000,-478067,123.202
314.0000,-556892,123.147
313.9000,-617206,123.096
313.8000,-627916,123.046
313.7000,-585427,122.973
313.6000,-553274,122.909
313.5000,-517087,122.849
313.4000,-551127,122.788
313.3000,-526713,122.729
313.2000,-365726,122.684
313.1000,-269474,122.632
313.0000,-248022,122.58
312.9000,-333998,122.531
312.8000,-333262,122.498
312.7000,-326437,122.454
312.6000,-331945,122.41
312.5000,-316762,122.356
312.4000,-361357,122.305
312.3000,-471231,122.247
312.2000,-484635,122.191
312.1000,-478870,122.117
312.0000,-441155,122.048
311.9000,-434047,121.981
311.8000,-459383,121.9
311.7000,-465449,121.836
311.6000,-512858,121.77
311.5000,-462313,121.716
311.4000,-468482,121.646
311.3000,-483465,121.601
311.2000,-458493,121.558
311.1000,-516283,121.522
311.0000,-576106,121.481
310.9000,-580743,121.448
310.8000,-550195,121.413
310.7000,-526684,121.384
310.6000,-582582,121.342
310.5000,-541536,121.31
310.4000,-590809,121.277
310.3000,-609497,121.245
310.2000,-599788,121.213
310.1000,-634378,121.188
310.0000,-580141,121.163
309.9000,-610618,121.139
309.8000,-529633,121.119
309.7000,-500960,121.092
309.6000,-422989,121.069
309.5000,-400459,121.031
309.4000,-356312,121.003
309.3000,-333357,120.962
309.2000,-330633,120.928
309.1000,-374432,120.871
309.0000,-487964,120.819
308.9000,-531208,120.773
308.8000,-600120,120.729
308.7000,-605072,120.693
308.6000,-603216,120.662
308.5000,-564284,120.63
308.4000,-602997,120.587
308.3000,-583028,120.565
308.2000,-536209,120.538
308.1000,-519272,120.519
308.0000,-473609,120.489
307.9000,-514489,120.46
307.8000,-553786,120.414
307.7000,-570503,120.374
307.6000,-546248,120.332
307.5000,-552982,120.272
307.4000,-615257,120.223
307.3000,-599549,120.176
307.2000,-557534,120.138
307.1000,-478836,120.094
307.0000,-393933,120.067
306.9000,-389689,120.036
306.8000,-294317,120.018
306.7000,-240296,120
306.6000,-162386,119.975
306.5000,-163612,119.95
306.4000,-221734,119.907
306.3000,-252360,119.877
306.2000,-286472,119.832
306.1000,-300100,119.795
306.0000,-407590,119.744
305.9000,-538386,119.705
305.8000,-544807,119.678
305.7000,-556856,119.639
305.6000,-525813,119.614
305.5000,-531957,119.588
305.4000,-599184,119.569
305.3000,-619400,119.543
305.2000,-653956,119.521
305.1000,-587635,119.493
305.0000,-572910,119.453
304.9000,-599733,119.424
304.8000,-520371,119.39
304.7000,-465358,119.358
304.6000,-353094,119.317
304.5000,-343167,119.281
304.4000,-310720,119.252
304.3000,-331367,119.217
304.2000,-376641,119.195
304.1000,-364838,119.174
304.0000,-405267,119.16
303.9000,-412004,119.132
303.8000,-494951,119.103
303.7000,-451179,119.083
303.6000,-378688,119.047
303.5000,-385892,119.021
303.4000,-401083,118.989
303.3000,-385758,118.951
303.2000,-339442,118.914
303.1000,-262197,118.887
303.0000,-274841,118.872
302.9000,-258833,118.845
302.8000,-312114,118.819
302.7000,-342129,118.799
302.6000,-300866,118.771
302.5000,-261387,118.753
302.4000,-274089,118.731
302.3000,-401427,118.694
302.2000,-428033,118.66
302.1000,-492149,118.627
302.0000,-552355,118.605
301.9000,-570233,118.574
301.8000,-555318,118.549
301.7000,-574132,118.53
301.6000,-609938,118.501
301.5000,-621689,118.486
301.4000,-659097,118.467
301.3000,-627143,118.441
301.2000,-489577,118.421
301.1000,-473284,118.401
301.0000,-493449,118.391
300.9000,-484068,118.367
300.8000,-492103,118.342
300.7000,-474654,118.32
300.6000,-409663,118.296
300.5000,-407301,118.275
300.4000,-481273,118.257
300.3000,-535292,118.231
300.2000,-491782,118.206
300.1000,-514596,118.185
300.0000,-512860,118.162
299.9000,-492278,118.145
299.8000,-510725,118.126
299.7000,-543713,118.102
299.6000,-564260,118.079
299.5000,-524087,118.059
299.4000,-534807,118.042
299.3000,-480954,118.021
299.2000,-431403,118.004
299.1000,-430981,117.99
299.0000,-422696,117.967
298.9000,-405667,117.952
298.8000,-348109,117.941
298.7000,-345483,117.923
298.6000,-354508,117.908
298.5000,-410814,117.89
298.4000,-479016,117.867
298.3000,-553113,117.845
298.2000,-566122,117.824
298.1000,-608012,117.802
298.0000,-693671,117.781
297.9000,-697942,117.763
297.8000,-706055,117.737
297.7000,-705728,117.717
297.6000,-703220,117.703
297.5000,-643368,117.683
297.4000,-633983,117.669
297.3000,-646334,117.655
297.2000,-631751,117.634
297.1000,-704010,117.613
297.0000,-842784,117.594
296.9000,-918920,117.571
296.8000,-966605,117.553
296.7000,-1.04721E+006,117.535
296.6000,-1.09028E+006,117.522
296.5000,-1.05955E+006,117.508
296.4000,-1.0699E+006,117.496
296.3000,-1.05412E+006,117.488
296.2000,-963109,117.479
296.1000,-864224,117.47
296.0000,-739989,117.461
295.9000,-671658,117.449
295.8000,-665448,117.429
295.7000,-631712,117.415
295.6000,-540551,117.404
295.5000,-436635,117.387
295.4000,-380493,117.366
295.3000,-385388,117.354
295.2000,-445681,117.335
295.1000,-491321,117.312
295.0000,-407259,117.301
294.9000,-361828,117.283
294.8000,-449348,117.257
294.7000,-615892,117.237
294.6000,-756633,117.217
294.5000,-838906,117.193
294.4000,-864826,117.176
294.3000,-861876,117.166
294.2000,-806736,117.149
294.1000,-838048,117.135
294.0000,-792160,117.129
293.9000,-745746,117.113
293.8000,-719500,117.103
293.7000,-656998,117.098
293.6000,-574921,117.085
293.5000,-518599,117.066
293.4000,-553348,117.055
293.3000,-563331,117.04
293.2000,-500839,117.024
293.1000,-439267,117.019
293.0000,-342824,117.007
292.9000,-256626,116.992
292.8000,-264983,116.985
292.7000,-334091,116.973
292.6000,-281515,116.961
292.5000,-277237,116.944
292.4000,-324931,116.935
292.3000,-369800,116.918
292.2000,-364124,116.902
292.1000,-449729,116.89
292.0000,-532571,116.87
291.9000,-438049,116.853
291.8000,-489153,116.836
291.7000,-574109,116.826
291.6000,-606988,116.809
291.5000,-597660,116.792
291.4000,-633616,116.781
291.3000,-618797,116.762
291.2000,-578122,116.741
291.1000,-610365,116.719
291.0000,-570777,116.703
290.9000,-513575,116.677
290.8000,-538245,116.642
290.7000,-588179,116.603
290.6000,-632272,116.561
290.5000,-685583,116.513
290.4000,-646602,116.464
290.3000,-613960,116.422
290.2000,-641161,116.369
290.1000,-660843,116.316
290.0000,-631923,116.27
289.9000,-630105,116.239
289.8000,-591505,116.214
289.7000,-602668,116.197
289.6000,-620258,116.194
289.5000,-676039,116.201
289.4000,-665356,116.221
289.3000,-638302,116.25
289.2000,-641815,116.285
289.1000,-620746,116.327
289.0000,-583481,116.366
288.9000,-585863,116.402
288.8000,-620384,116.433
288.7000,-618332,116.461
288.6000,-600534,116.481
288.5000,-594591,116.495
288.4000,-639484,116.502
288.3000,-620950,116.507
288.2000,-663761,116.505
288.1000,-677731,116.499
288.0000,-653278,116.492
287.9000,-609202,116.48
287.8000,-626407,116.472
287.7000,-692003,116.461
287.6000,-690494,116.455
287.5000,-683574,116.442
287.4000,-710078,116.436
287.3000,-661709,116.431
287.2000,-623401,116.427
287.1000,-634559,116.42
287.0000,-657081,116.406
286.9000,-574889,116.399
286.8000,-515172,116.393
286.7000,-548886,116.385
286.6000,-593911,116.373
286.5000,-637628,116.368
286.4000,-637031,116.368
286.3000,-614046,116.371
286.2000,-615111,116.373
286.1000,-623106,116.371
286.0000,-680891,116.372
285.9000,-700382,116.371
285.8000,-648817,116.375
285.7000,-563197,116.372
285.6000,-559531,116.365
285.5000,-576398,116.363
285.4000,-585144,116.361
285.3000,-630970,116.361
285.2000,-634096,116.353
285.1000,-588861,116.349
285.0000,-588013,116.35
284.9000,-578196,116.347
284.8000,-571038,116.345
284.7000,-594930,116.334
284.6000,-603602,116.325
284.5000,-549545,116.325
284.4000,-556464,116.322
284.3000,-536926,116.324
284.2000,-578318,116.315
284.1000,-624112,116.31
284.0000,-634986,116.3
283.9000,-585112,116.301
283.8000,-549510,116.307
283.7000,-556110,116.303
283.6000,-509990,116.3
283.5000,-519653,116.294
283.4000,-546555,116.291
283.3000,-583261,116.293
283.2000,-632760,116.298
283.1000,-694794,116.299
283.0000,-777410,116.293
282.9000,-834105,116.288
282.8000,-878681,116.286
282.7000,-947546,116.289
282.6000,-981919,116.294
282.5000,-963137,116.294
282.4000,-902349,116.294
282.3000,-838018,116.293
282.2000,-832026,116.292
282.1000,-778412,116.298
282.0000,-743283,116.304
281.9000,-723040,116.305
281.8000,-722658,116.307
281.7000,-661052,116.31
281.6000,-596209,116.313
281.5000,-541926,116.316
281.4000,-438489,116.327
281.3000,-369827,116.333
281.2000,-309825,116.334
281.1000,-283095,116.333
281.0000,-236189,116.33
280.9000,-243761,116.326
280.8000,-336684,116.32
280.7000,-392115,116.317
280.6000,-515659,116.315
280.5000,-542776,116.311
280.4000,-617288,116.307
280.3000,-648733,116.306
280.2000,-645225,116.306
280.1000,-643021,116.307
280.0000,-582582,116.307
279.9000,-576825,116.305
279.8000,-570077,116.299
279.7000,-588705,116.297
279.6000,-607892,116.296
279.5000,-613161,116.296
279.4000,-612744,116.296
279.3000,-577542,116.298
279.2000,-608073,116.299
279.1000,-599315,116.305
279.0000,-611610,116.305
278.9000,-645542,116.303
278.8000,-614831,116.309
278.7000,-604063,116.315
278.6000,-590815,116.323
278.5000,-626262,116.325
278.4000,-660211,116.324
278.3000,-707989,116.323
278.2000,-738348,116.325
278.1000,-698583,116.33
278.0000,-671105,116.328
277.9000,-654573,116.324
277.8000,-581599,116.323
277.7000,-566089,116.322
277.6000,-492740,116.33
277.5000,-493218,116.335
277.4000,-499959,116.342
277.3000,-526471,116.349
277.2000,-562760,116.356
277.1000,-609801,116.365
277.0000,-672859,116.372
276.9000,-691508,116.381
276.8000,-707135,116.385
276.7000,-636359,116.39
276.6000,-572159,116.395
276.5000,-495356,116.402
276.4000,-414661,116.41
276.3000,-357546,116.414
276.2000,-328486,116.417
276.1000,-320216,116.418
276.0000,-268026,116.425
275.9000,-284563,116.431
275.8000,-342974,116.435
275.7000,-430776,116.435
275.6000,-524094,116.436
275.5000,-580117,116.44
275.4000,-545968,116.445
275.3000,-570928,116.451
275.2000,-577371,116.455
275.1000,-517041,116.461
275.0000,-497686,116.466
274.9000,-392717,116.473
274.8000,-294030,116.483
274.7000,-215256,116.49
274.6000,-154487,116.498
274.5000,-145143,116.507
274.4000,-138194,116.515
274.3000,-267702,116.519
274.2000,-329914,116.528
274.1000,-355225,116.542
274.0000,-447937,116.545
273.9000,-543347,116.546
273.8000,-646322,116.547
273.7000,-644596,116.549
273.6000,-595566,116.552
273.5000,-552894,116.558
273.4000,-504444,116.56
273.3000,-483839,116.56
273.2000,-409373,116.563
273.1000,-323086,116.571
273.0000,-238254,116.581
272.9000,-222109,116.59
272.8000,-255698,116.6
272.7000,-206119,116.611
272.6000,-129015,116.622
272.5000,-70500.8,116.631
272.4000,-45647.6,116.639
272.3000,-98699.1,116.646
272.2000,-162789,116.653
272.1000,-176083,116.661
272.0000,-215714,116.664
271.9000,-308577,116.665
271.8000,-347414,116.667
271.7000,-393684,116.669
271.6000,-431990,116.672
271.5000,-369219,116.677
271.4000,-270440,116.681
271.3000,-210354,116.683
271.2000,-216899,116.685
271.1000,-148219,116.689
271.0000,-101093,116.69
270.9000,-82370.5,116.687
270.8000,-80878.5,116.683
270.7000,-113651,116.682
270.6000,-151862,116.68
270.5000,-144062,116.676
270.4000,-67242.2,116.674
270.3000,-91149.4,116.672
270.2000,-184764,116.67
270.1000,-329949,116.67
270.0000,-389262,116.675
269.9000,-382513,116.68
269.8000,-395601,116.682
269.7000,-492472,116.688
269.6000,-591117,116.697
269.5000,-605352,116.709
269.4000,-630697,116.719
269.3000,-560327,116.729
269.2000,-529380,116.735
269.1000,-676922,125.377
269.0000,-894959,138.788
268.9000,-1.0021E+006,143.575
268.8000,-1.02131E+006,144.678
268.7000,-1.07775E+006,144.947
268.6000,-1.04288E+006,145.019
268.5000,-1.01325E+006,145.05
268.4000,-957377,145.075
268.3000,-826369,141.655
268.2000,-598062,127.055
268.1000,-387853,119.206
268.0000,-293861,117.453
267.9000,-243900,117.048
267.8000,-323741,116.963
267.7000,-408191,116.947
267.6000,-493373,116.951
267.5000,-591519,116.959
267.4000,-645513,121.051
267.3000,-670546,135.63
267.2000,-649528,149.505
267.1000,-687702,163.377
267.0000,-721505,177.242
266.9000,-624798,191.121
266.8000,-540792,204.999
266.7000,-519774,218.872
266.6000,-548915,232.755
266.5000,-607341,232.647
266.4000,-718382,232.641
266.3000,-689302,232.685
266.2000,-658066,232.739
266.1000,-686642,232.794
266.0000,-738649,232.842
265.9000,-765659,232.897
265.8000,-733326,232.948
265.7000,-735097,232.995
265.6000,-651235,233.042
265.5000,-638299,233.083
265.4000,-634788,233.11
265.3000,-625478,233.132
265.2000,-625370,233.162
265.1000,-690499,233.194
265.0000,-788100,233.228
264.9000,-873412,233.269
264.8000,-831496,233.3
264.7000,-817251,233.337
264.6000,-856666,233.378
264.5000,-905791,233.426
264.4000,-895913,233.476
264.3000,-882723,233.517
264.2000,-823069,233.565
264.1000,-712760,233.616
264.0000,-754781,233.667
263.9000,-842002,233.719
263.8000,-882948,233.765
263.7000,-834593,233.817
263.6000,-873952,233.866
263.5000,-829549,233.918
263.4000,-731503,233.976
263.3000,-597536,234.019
263.2000,-549447,234.063
263.1000,-388392,234.113
263.0000,-220992,234.174
262.9000,-144852,234.231
262.8000,-125426,234.289
262.7000,-161542,234.352
262.6000,-236989,234.41
262.5000,-426180,234.47
262.4000,-590695,234.527
262.3000,-758811,234.588
262.2000,-934250,234.647
262.1000,-1.08019E+006,234.709
262.0000,-1.19426E+006,234.754
261.9000,-1.18421E+006,234.806
261.8000,-1.1603E+006,234.866
261.7000,-1.14009E+006,234.919
261.6000,-1.04704E+006,234.975
261.5000,-971785,235.03
261.4000,-934304,235.078
261.3000,-962094,235.124
261.2000,-799564,235.188
261.1000,-669210,235.256
261.0000,-602251,235.318
260.9000,-573500,235.369
260.8000,-499602,235.431
260.7000,-418874,235.502
260.6000,-400014,235.566
260.5000,-346817,235.626
260.4000,-472641,235.685
260.3000,-617256,235.741
260.2000,-743963,235.782
260.1000,-797501,235.837
260.0000,-811905,235.898
259.9000,-876080,235.95
259.8000,-925012,236.012
259.7000,-962038,236.081
259.6000,-869792,236.144
259.5000,-917338,236.197
259.4000,-889035,236.26
259.3000,-819785,236.319
259.2000,-871845,236.376
259.1000,-943158,236.433
259.0000,-951443,236.477
258.9000,-1.01837E+006,236.519
258.8000,-1.06754E+006,236.573
258.7000,-1.04152E+006,236.626
258.6000,-937634,236.682
258.5000,-947924,236.748
258.4000,-902329,236.81
258.3000,-856707,236.871
258.2000,-830599,236.936
258.1000,-774843,236.997
258.0000,-744336,237.058
257.9000,-625305,237.125
257.8000,-659987,237.186
257.7000,-606340,237.249
257.6000,-569489,237.316
257.5000,-573973,237.38
257.4000,-477449,237.453
257.3000,-422111,237.52
257.2000,-455663,237.58
257.1000,-571845,237.639
257.0000,-660611,237.698
256.9000,-651183,237.762
256.8000,-668064,237.818
256.7000,-754034,237.882
256.6000,-925624,237.942
256.5000,-985377,237.996
256.4000,-1.03564E+006,238.052
256.3000,-1.01314E+006,238.102
256.2000,-977112,238.154
256.1000,-1.06417E+006,238.206
256.0000,-1.20491E+006,238.249
255.9000,-1.15996E+006,238.296
255.8000,-937407,238.338
255.7000,-808675,238.387
255.6000,-794839,238.442
255.5000,-701515,238.498
255.4000,-702527,238.563
255.3000,-640893,238.63
255.2000,-535716,238.704
255.1000,-572786,238.772
255.0000,-665650,238.842
254.9000,-780257,238.906
254.8000,-802323,238.968
254.7000,-758867,239.041
254.6000,-653297,239.112
254.5000,-595008,239.184
254.4000,-553087,239.249
254.3000,-534009,239.318
254.2000,-481978,239.384
254.1000,-344617,239.453
254.0000,-266307,239.52
253.9000,-203805,239.586
253.8000,-251148,239.637
253.7000,-268280,239.696
253.6000,-377742,239.756
253.5000,-393743,239.817
253.4000,-408202,239.863
253.3000,-447339,239.916
253.2000,-600588,239.974
253.1000,-699821,240.041
253.0000,-794707,240.115
252.9000,-904514,240.188
252.8000,-845242,240.249
252.7000,-895493,240.308
252.6000,-921614,240.371
252.5000,-1.01563E+006,240.437
252.4000,-1.01594E+006,240.502
252.3000,-941545,240.569
252.2000,-842494,240.62
252.1000,-769537,240.665
252.0000,-727343,240.708
251.9000,-734284,240.751
251.8000,-706758,240.803
251.7000,-690006,240.848
251.6000,-794612,240.892
251.5000,-839234,240.94
251.4000,-1.07084E+006,240.999
251.3000,-1.23735E+006,241.063
251.2000,-1.40659E+006,241.13
251.1000,-1.36691E+006,241.208
251.0000,-1.3568E+006,241.278
250.9000,-1.44066E+006,241.355
250.8000,-1.44011E+006,241.435
250.7000,-1.45531E+006,241.52
250.6000,-1.31525E+006,241.599
250.5000,-1.10619E+006,241.667
250.4000,-858421,241.739
250.3000,-887767,241.798
250.2000,-789208,241.865
250.1000,-672931,241.929
250.0000,-537871,241.99
249.9000,-526640,242.046
249.8000,-546105,242.092
249.7000,-654807,242.149
249.6000,-744861,242.212
249.5000,-700206,242.279
249.4000,-760680,242.342
249.3000,-896763,242.4
249.2000,-919797,242.458
249.1000,-935586,242.518
249.0000,-864155,242.584
248.9000,-843460,242.649
248.8000,-747850,242.721
248.7000,-715885,242.788
248.6000,-656515,242.852
248.5000,-564896,242.924
248.4000,-600742,243
248.3000,-638384,243.068
248.2000,-638535,243.135
248.1000,-714964,243.204
248.0000,-814796,243.268
247.9000,-924995,243.328
247.8000,-1.05643E+006,243.379
247.7000,-1.0203E+006,243.431
247.6000,-895491,243.492
247.5000,-813919,243.557
247.4000,-718336,243.63
247.3000,-638653,243.698
247.2000,-497601,243.768
247.1000,-441971,243.825
247.0000,-337603,243.888
246.9000,-394881,243.962
246.8000,-397509,244.024
246.7000,-467908,244.077
246.6000,-463730,244.13
246.5000,-368798,244.183
246.4000,-397454,244.225
246.3000,-498374,244.263
246.2000,-588206,244.306
246.1000,-621121,244.353
246.0000,-720430,244.403
245.9000,-704502,244.469
245.8000,-591436,244.535
245.7000,-776561,244.595
245.6000,-829153,244.659
245.5000,-667589,244.735
245.4000,-551532,244.813
245.3000,-574253,244.888
245.2000,-571232,244.969
245.1000,-589652,245.043
245.0000,-603287,245.115
244.9000,-478173,245.187
244.8000,-343935,245.26
244.7000,-321460,245.344
244.6000,-293203,245.438
244.5000,-140766,245.535
244.4000,-138547,245.618
244.3000,-82628.2,245.697
244.2000,-24726.2,245.772
244.1000,-9011.29,245.851
244.0000,-135624,245.923
243.9000,-170860,245.993
243.8000,-190415,246.054
243.7000,-319536,246.11
243.6000,-363141,246.166
243.5000,-348011,246.229
243.4000,-327876,246.304
243.3000,-409553,246.372
243.2000,-375790,246.452
243.1000,-474957,246.525
243.0000,-580704,246.596
242.9000,-583044,246.671
242.8000,-698019,246.74
242.7000,-772702,246.812
242.6000,-945814,246.881
242.5000,-1.02677E+006,246.953
242.4000,-1.03076E+006,247.029
242.3000,-1.04339E+006,247.108
242.2000,-1.04428E+006,247.192
242.1000,-1.05992E+006,247.278
242.0000,-1.0056E+006,247.366
241.9000,-938102,247.456
241.8000,-929089,247.541
241.7000,-850476,247.622
241.6000,-833861,247.695
241.5000,-903188,247.768
241.4000,-1.01899E+006,247.842
241.3000,-981895,247.924
241.2000,-892039,248.008
241.1000,-693276,248.101
241.0000,-543520,248.197
240.9000,-532198,248.29
240.8000,-537954,248.384
240.7000,-438848,248.481
240.6000,-190716,248.583
240.5000,-52505.6,248.678
240.4000,-130232,248.77
240.3000,-356510,248.862
240.2000,-455558,248.953
240.1000,-328803,249.045
240.0000,-290024,249.136
239.9000,-247157,249.232
239.8000,-383104,249.326
239.7000,-451301,249.423
239.6000,-521418,249.518
239.5000,-576236,249.607
239.4000,-534812,249.699
239.3000,-720919,249.789
239.2000,-740955,249.892
239.1000,-796868,249.998
239.0000,-776696,250.103
238.9000,-778070,250.203
238.8000,-817220,250.306
238.7000,-770788,250.418
238.6000,-709368,250.521
238.5000,-643565,250.621
238.4000,-611008,250.724
238.3000,-638230,250.826
238.2000,-653963,250.929
238.1000,-801917,251.034
238.0000,-716210,251.143
237.9000,-635769,251.252
237.8000,-709539,251.359
237.7000,-736696,251.47
237.6000,-737452,251.581
237.5000,-723294,251.688
237.4000,-781433,251.791
237.3000,-679879,251.9
237.2000,-638187,252.004
237.1000,-512129,252.104
237.0000,-402558,252.206
236.9000,-303513,252.316
236.8000,-253739,252.429
236.7000,-313911,252.539
236.6000,-256797,252.648
236.5000,-353755,252.754
236.4000,-408542,252.865
236.3000,-526283,252.979
236.2000,-571918,253.097
236.1000,-512448,253.208
236.0000,-502197,253.318
235.9000,-344617,253.437
235.8000,-234068,253.564
235.7000,-255997,253.687
235.6000,-251509,253.809
235.5000,-250432,253.93
235.4000,-219483,254.053
235.3000,-412589,254.171
235.2000,-574221,254.292
235.1000,-772212,254.409
235.0000,-874069,254.528
234.9000,-792194,254.647
234.8000,-720776,254.768
234.7000,-673676,254.892
234.6000,-749927,255.007
234.5000,-663515,255.13
234.4000,-410770,255.257
234.3000,-330911,255.38
234.2000,-313319,255.501
234.1000,-304474,255.626
234.0000,-234321,255.749
233.9000,-234450,255.866
233.8000,-170543,255.988
233.7000,-192395,256.108
233.6000,-228911,256.232
233.5000,-338223,256.354
233.4000,-511741,256.475
233.3000,-534204,256.602
233.2000,-645260,256.731
233.1000,-741326,256.863
233.0000,-735418,257
232.9000,-705465,257.136
232.8000,-691133,257.269
232.7000,-618090,257.404
232.6000,-434942,257.539
232.5000,-427077,257.666
232.4000,-484709,257.786
232.3000,-304771,257.916
232.2000,-289978,258.04
232.1000,-400214,258.163
232.0000,-486237,258.287
231.9000,-572649,258.411
231.8000,-705872,258.537
231.7000,-869824,258.665
231.6000,-933558,258.802
231.5000,-1.14288E+006,258.924
231.4000,-1.08131E+006,259.055
231.3000,-1.01513E+006,259.19
231.2000,-889628,259.334
231.1000,-803628,259.475
231.0000,-691037,259.61
230.9000,-483151,259.746
230.8000,-181702,259.88
230.7000,-28818.9,260.019
230.6000,-153882,260.149
230.5000,-286916,260.282
230.4000,-402047,260.412
230.3000,-359672,260.551
230.2000,-275277,260.691
230.1000,-298737,260.839
230.0000,-263007,260.983
229.9000,-333679,261.121
229.8000,-263850,261.267
229.7000,-103980,261.403
229.6000,76883.8,261.536
229.5000,105509,261.66
229.4000,-33684.8,261.777
229.3000,137219,261.895
229.2000,173155,262.007
229.1000,240149,262.114
229.0000,338314,262.221
228.9000,315667,262.33
228.8000,136654,262.445
228.7000,113264,262.574
228.6000,189524,262.713
228.5000,18324,262.847
228.4000,-120655,262.996
228.3000,-200292,263.155
228.2000,-243900,263.317
228.1000,-323293,263.486
228.0000,-241745,263.657
227.9000,-247182,263.815
227.8000,-356296,263.968
227.7000,-286355,264.133
227.6000,-326806,264.286
227.5000,-510736,264.43
227.4000,-674256,264.575
227.3000,-561144,264.728
227.2000,-476853,264.877
227.1000,-417460,265.026
227.0000,-496418,265.169
226.9000,-715953,265.302
226.8000,-859960,265.444
226.7000,-858258,265.587
226.6000,-641883,265.738
226.5000,-640444,265.883
226.4000,-723038,266.019
226.3000,-779489,266.156
226.2000,-890925,266.298
226.1000,-811000,266.448
226.0000,-893017,266.592
225.9000,-1.02231E+006,266.736
225.8000,-1.16453E+006,266.878
225.7000,-1.24627E+006,267.019
225.6000,-1.28431E+006,267.164
225.5000,-1.34081E+006,267.312
225.4000,-1.33449E+006,267.459
225.3000,-1.27832E+006,267.607
225.2000,-1.18698E+006,267.753
225.1000,-1.1474E+006,267.893
225.0000,-1.22261E+006,268.033
224.9000,-1.28283E+006,268.177
224.8000,-1.34998E+006,268.319
224.7000,-1.42815E+006,268.46
224.6000,-1.47397E+006,268.6
224.5000,-1.42412E+006,268.747
224.4000,-1.30637E+006,268.9
224.3000,-1.02307E+006,269.059
224.2000,-804098,269.217
224.1000,-585327,269.373
224.0000,-665906,269.523
223.9000,-667147,269.674
223.8000,-712123,269.821
223.7000,-825618,269.967
223.6000,-973994,270.109
223.5000,-1.23397E+006,270.247
223.4000,-1.32618E+006,270.389
223.3000,-1.52465E+006,270.523
223.2000,-1.57743E+006,270.659
223.1000,-1.70663E+006,270.794
223.0000,-1.77142E+006,270.935
222.9000,-1.6407E+006,271.076
222.8000,-1.57044E+006,271.215
222.7000,-1.56459E+006,271.351
222.6000,-1.42981E+006,271.49
222.5000,-1.19269E+006,271.639
222.4000,-1.14193E+006,271.779
222.3000,-916785,271.925
222.2000,-791931,272.067
222.1000,-756126,272.207
222.0000,-881088,272.348
221.9000,-769140,272.49
221.8000,-767741,272.632
221.7000,-778320,272.772
221.6000,-783161,272.913
221.5000,-695796,273.058
221.4000,-485865,273.205
221.3000,-429454,273.351
221.2000,-291351,273.498
221.1000,-202832,273.646
221.0000,-134408,273.793
220.9000,-66038.5,273.941
220.8000,11201.5,274.09
220.7000,198778,274.236
220.6000,297924,274.385
220.5000,314779,274.537
220.4000,262231,274.681
220.3000,145971,274.826
220.2000,13815.9,274.972
220.1000,-129922,275.112
220.0000,-307928,275.251
219.9000,-685093,275.394
219.8000,-1.05412E+006,275.531
219.7000,-1.26306E+006,275.668
219.6000,-1.28253E+006,275.81
219.5000,-1.23608E+006,275.954
219.4000,-1.14764E+006,276.1
219.3000,-1.07768E+006,276.245
219.2000,-1.05828E+006,276.387
219.1000,-925508,276.528
219.0000,-773139,276.679
218.9000,-690081,276.823
218.8000,-798235,276.964
218.7000,-906394,277.101
218.6000,-1.01938E+006,277.238
218.5000,-1.06838E+006,277.378
218.4000,-1.22866E+006,277.521
218.3000,-1.19921E+006,277.665
218.2000,-1.12964E+006,277.807
218.1000,-1.27418E+006,277.947
218.0000,-1.29793E+006,278.09
217.9000,-1.11381E+006,278.242
217.8000,-1.09582E+006,278.385
217.7000,-1.08053E+006,278.528
217.6000,-1.23283E+006,278.666
217.5000,-1.29573E+006,278.81
217.4000,-1.40304E+006,278.954
217.3000,-1.25235E+006,279.099
217.2000,-1.10934E+006,279.249
217.1000,-1.1776E+006,279.39
217.0000,-1.07841E+006,279.535
216.9000,-1.08104E+006,279.682
216.8000,-970741,279.827
216.7000,-753011,279.973
216.6000,-666838,280.116
216.5000,-759020,280.259
216.4000,-1.03374E+006,280.389
216.3000,-1.15072E+006,280.523
216.2000,-1.26187E+006,280.666
216.1000,-1.24221E+006,280.81
216.0000,-1.30193E+006,280.951
215.9000,-1.46554E+006,281.089
215.8000,-1.61519E+006,281.226
215.7000,-1.73812E+006,281.367
215.6000,-1.65434E+006,281.514
215.5000,-1.38757E+006,281.666
215.4000,-1.30797E+006,281.811
215.3000,-1.54536E+006,281.948
215.2000,-1.57283E+006,282.091
215.1000,-1.54408E+006,282.242
215.0000,-1.43477E+006,282.397
214.9000,-1.46271E+006,282.549
214.8000,-1.55588E+006,282.695
214.7000,-1.7237E+006,282.844
214.6000,-1.90928E+006,282.995
214.5000,-1.83189E+006,283.149
214.4000,-1.85402E+006,283.305
214.3000,-1.86652E+006,283.457
214.2000,-1.83967E+006,283.608
214.1000,-1.74562E+006,283.76
214.0000,-1.69745E+006,283.915
213.9000,-1.66219E+006,284.071
213.8000,-1.68486E+006,284.225
213.7000,-1.64205E+006,284.382
213.6000,-1.35705E+006,284.545
213.5000,-1.1512E+006,284.705
213.4000,-1.07277E+006,284.865
213.3000,-1.09874E+006,285.025
213.2000,-1.20057E+006,285.184
213.1000,-1.48807E+006,285.339
213.0000,-1.42228E+006,285.501
212.9000,-1.37801E+006,285.664
212.8000,-1.53413E+006,285.82
212.7000,-1.6382E+006,285.975
212.6000,-1.5733E+006,286.136
212.5000,-1.59485E+006,286.297
212.4000,-1.53339E+006,286.46
212.3000,-1.13493E+006,286.626
212.2000,-1.01449E+006,286.788
212.1000,-1.04229E+006,286.949
212.0000,-877016,287.121
211.9000,-845473,287.294
211.8000,-1.01831E+006,287.457
211.7000,-966767,287.628
211.6000,-891144,287.8
211.5000,-932422,287.972
211.4000,-1.06319E+006,288.143
211.3000,-1.0483E+006,288.317
211.2000,-995924,288.489
211.1000,-1.03584E+006,288.66
211.0000,-906070,288.84
210.9000,-905574,289.015
210.8000,-843855,289.191
210.7000,-834697,289.373
210.6000,-705275,289.557
210.5000,-717418,289.74
210.4000,-1.09501E+006,289.913
210.3000,-1.30409E+006,290.093
210.2000,-1.28819E+006,290.275
210.1000,-1.19261E+006,290.461
210.0000,-1.15528E+006,290.644
209.9000,-1.04245E+006,290.827
209.8000,-1.20012E+006,291.001
209.7000,-1.3165E+006,291.18
209.6000,-1.16981E+006,291.363
209.5000,-1.03331E+006,291.547
209.4000,-1.15488E+006,291.725
209.3000,-1.16476E+006,291.905
209.2000,-1.15262E+006,292.089
209.1000,-1.30005E+006,292.272
209.0000,-1.22795E+006,292.458
208.9000,-1.18796E+006,292.643
208.8000,-1.06825E+006,292.828
208.7000,-925581,293.014
208.6000,-905652,293.203
208.5000,-1.15095E+006,293.386
208.4000,-1.32529E+006,293.568
208.3000,-1.17759E+006,293.757
208.2000,-1.06832E+006,293.948
208.1000,-813239,294.144
208.0000,-887019,294.334
207.9000,-1.15683E+006,294.519
207.8000,-1.22132E+006,294.708
207.7000,-895888,294.902
207.6000,-773066,295.094
207.5000,-890257,295.282
207.4000,-930907,295.469
207.3000,-1.09885E+006,295.652
207.2000,-1.03356E+006,295.839
207.1000,-735711,296.029
207.0000,-504934,296.22
206.9000,-409468,296.405
206.8000,-474781,296.587
206.7000,-701691,296.765
206.6000,-810905,296.948
206.5000,-793534,297.134
206.4000,-867233,297.318
206.3000,-1.02792E+006,297.502
206.2000,-1.21379E+006,297.679
206.1000,-1.45281E+006,297.855
206.0000,-1.56416E+006,298.033
205.9000,-1.1888E+006,298.22
205.8000,-1.17765E+006,298.397
205.7000,-1.31216E+006,298.57
205.6000,-1.40228E+006,298.746
205.5000,-1.53276E+006,298.92
205.4000,-1.43827E+006,299.1
205.3000,-1.15974E+006,299.288
205.2000,-995143,299.476
205.1000,-1.12784E+006,299.658
205.0000,-1.18509E+006,299.837
204.9000,-1.01654E+006,300.024
204.8000,-741140,300.214
204.7000,-503822,300.404
204.6000,-507823,300.591
204.5000,-611352,300.778
204.4000,-738875,300.959
204.3000,-765240,301.144
204.2000,-832345,301.33
204.1000,-906059,301.52
204.0000,-785328,301.712
203.9000,-816367,301.897
203.8000,-659811,302.086
203.7000,-641090,302.271
203.6000,-512224,302.462
203.5000,-331177,302.653
203.4000,-170816,302.845
203.3000,-57866.6,303.035
203.2000,-151571,303.223
203.1000,-297294,303.409
203.0000,-463954,303.596
202.9000,-459688,303.785
202.8000,-370648,303.973
202.7000,-463394,304.161
202.6000,-651712,304.345
202.5000,-647037,304.531
202.4000,-586117,304.717
202.3000,-484640,304.905
202.2000,-478175,305.094
202.1000,-458798,305.283
202.0000,-573353,305.47
201.9000,-793123,305.657
201.8000,-862537,305.852
201.7000,-1.07245E+006,306.044
201.6000,-1.23558E+006,306.237
201.5000,-1.35182E+006,306.435
201.4000,-1.37204E+006,306.633
201.3000,-1.41213E+006,306.832
201.2000,-1.53347E+006,307.034
201.1000,-1.26184E+006,307.24
201.0000,-1.04784E+006,307.446
200.9000,-853784,307.654
200.8000,-721722,307.863
200.7000,-640191,308.074
200.6000,-482807,308.292
200.5000,-628740,308.509
200.4000,-642883,308.73
200.3000,-771796,308.948
200.2000,-747233,309.172
200.1000,-968069,309.387
200.0000,-934525,309.607
199.9000,-1.00095E+006,309.825
199.8000,-1.11032E+006,310.03
199.7000,-567559,310.239
199.6000,-328093,310.441
199.5000,-64395.6,310.641
199.4000,-165614,310.833
199.3000,-25665.4,311.031
199.2000,-5462.78,311.229
199.1000,-6600.4,311.425
199.0000,-168932,311.625
198.9000,-638199,311.827
198.8000,-927512,312.038
198.7000,-1.03357E+006,312.259
198.6000,-830467,312.489
198.5000,-663532,312.725
198.4000,-735706,312.958
198.3000,-760366,313.199
198.2000,-727632,313.451
198.1000,-431732,313.724
198.0000,-443363,314.001
197.9000,-497087,314.287
197.8000,-601263,314.574
197.7000,-642241,314.866
197.6000,-448837,315.159
197.5000,-501646,315.439
197.4000,-255885,315.709
197.3000,92210.4,315.951
197.2000,195280,316.158
197.1000,450931,316.344
197.0000,658150,316.511
196.9000,717614,316.668
196.8000,342597,316.81
196.7000,434702,316.97
196.6000,370197,317.139
196.5000,-161592,317.319
196.4000,-64382.1,317.541
196.3000,-62676.5,317.786
196.2000,-89496.3,318.064
196.1000,-239319,318.366
196.0000,-161104,318.709
195.9000,144123,319.102
195.8000,315318,319.552
195.7000,581077,320.07
195.6000,774712,320.648
195.5000,723358,321.278
195.4000,356835,321.934
195.3000,102274,322.597
195.2000,-333050,323.244
195.1000,-455327,323.854
195.0000,-740999,324.363
194.9000,-1.07302E+006,324.747
194.8000,-1.64818E+006,324.994
194.7000,-1.85198E+006,325.131
194.6000,-1.7974E+006,325.187
194.5000,-1.66519E+006,325.185
194.4000,-1.59973E+006,325.151
194.3000,-1.71171E+006,325.113
194.2000,-1.92925E+006,325.117
194.1000,-1.76758E+006,325.21
194.0000,-1.13128E+006,325.425
193.9000,-659234,325.763
193.8000,-586848,326.225
193.7000,-848058,326.843
193.6000,-581116,327.646
193.5000,-403226,328.654
193.4000,-206589,329.88
193.3000,-285275,331.293
193.2000,-804771,332.84
193.1000,-1.18006E+006,334.469
193.0000,-1.28852E+006,336.107
192.9000,-989348,337.661
192.8000,-657306,339.027
192.7000,-291175,340.074
192.6000,-110879,340.719
192.5000,106742,340.967
192.4000,599385,340.881
192.3000,658491,340.515
192.2000,596644,339.963
192.1000,672012,339.321
192.0000,480581,338.693
191.9000,345230,338.216
191.8000,355569,338.005
191.7000,166373,338.11
191.6000,-484787,338.542
191.5000,-976861,339.314
191.4000,-1.01459E+006,340.438
191.3000,-914039,341.932
191.2000,-819499,343.786
191.1000,-1.38071E+006,345.932
191.0000,-2.00976E+006,348.3
190.9000,-2.01609E+006,350.781
190.8000,-1.82872E+006,353.246
190.7000,-1.32499E+006,355.571
190.6000,-1.49266E+006,357.59
190.5000,-1.68998E+006,359.165
190.4000,-2.10563E+006,360.164
190.3000,-2.02342E+006,360.593
190.2000,-1.53352E+006,360.528
190.1000,-1.55909E+006,360.074
190.0000,-1.7632E+006,359.39

##### Extended Information
[Comments]
Sample name,Doxer_0.6uM
Comment
User
Division
Company,CSIR-IMTECH

[Detailed Information]
Creation date,4/8/2024 3:56 PM

Data array type,Linear data array * 2
Horizontal axis,Wavelength [nm]
Vertical axis(1),Mol. Ellip.
Vertical axis(2),HT [V]
Start,350 nm
End,190 nm
Data interval,0.1 nm
Data points,1601    

[Measurement Information]
Instrument Name,JASCO CD
Model Name,J-815
Serial No.,B063061168

Accessory,PTC-423S
Accessory S/N,C013945-01
  Temperature,36.57 C
  Control Sonsor,Cell
  Monitor Sensor,Cell
  Start Mode,Start immediately
  Cell Length,10 mm

Measurement date,4/8/2024 3:54 PM

Photometric Mode,CD, HT
Measure Range,350 - 190 nm
Data pitch,0.1 nm
Sensitivity,Standard
D.I.T.,1 sec
Bandwidth,1.00 nm
Start Mode,Immediately
Scanning Speed,50 nm/min
Baseline Correction,None
Shutter Control,Auto
CD Detector,PMT
PMT Voltage,Auto
Accumulations,3
Concentration,0.6 umol/L

