TITLE	Erg_0.6uM
DATA TYPE	
ORIGIN	JASCO
OWNER	
DATE	24/04/09
TIME	13:17:00
SPECTROMETER/DATA SYSTEM	
LOCALE	1033
RESOLUTION	
DELTAX	-0.1
XUNITS	NANOMETERS
YUNITS	Mol. Ellip.
Y2UNITS	HT [V]
FIRSTX	  350.0000
LASTX	  190.0000
NPOINTS	    1601
FIRSTY	-2087868.62500
MAXY	2167492.25000
MINY	-2931712.75000
XYDATA
350.0000	-2.08787E+006	487.811
349.9000	-1.71081E+006	487.177
349.8000	-1.06322E+006	486.249
349.7000	-1.04023E+006	485.292
349.6000	-1.15704E+006	484.6
349.5000	-1.32658E+006	483.994
349.4000	-1.47429E+006	483.059
349.3000	-1.36026E+006	482.391
349.2000	-1.84191E+006	481.815
349.1000	-2.13627E+006	480.934
349.0000	-2.40473E+006	480.271
348.9000	-2.3004E+006	479.696
348.8000	-1.62955E+006	478.815
348.7000	-897824	477.925
348.6000	-53446.1	477.293
348.5000	398196	476.744
348.4000	795952	475.869
348.3000	1.0122E+006	475.217
348.2000	1.12736E+006	474.635
348.1000	1.06349E+006	473.738
348.0000	530156	473.051
347.9000	-211180	472.446
347.8000	-970338	471.549
347.7000	-1.35624E+006	470.645
347.6000	-1.15333E+006	469.996
347.5000	-918958	469.443
347.4000	-830874	468.577
347.3000	-832043	467.924
347.2000	-804282	467.372
347.1000	-528079	466.577
347.0000	-495159	465.988
346.9000	-221647	465.489
346.8000	-249591	464.689
346.7000	-292327	463.871
346.6000	-175063	463.278
346.5000	-278109	462.518
346.4000	86198.6	461.749
346.3000	626686	461.154
346.2000	818704	460.345
346.1000	682789	459.509
346.0000	575395	458.89
345.9000	366034	458.358
345.8000	213768	457.551
345.7000	235823	456.944
345.6000	63859.8	456.42
345.5000	-422338	455.642
345.4000	-544403	455.077
345.3000	-630038	454.608
345.2000	-704809	453.887
345.1000	-443336	453.166
345.0000	-595965	452.631
344.9000	-761746	451.953
344.8000	-664015	451.261
344.7000	-773751	450.741
344.6000	-860271	450.058
344.5000	-685351	449.363
344.4000	-816139	448.828
344.3000	-1.11075E+006	448.117
344.2000	-1.44519E+006	447.387
344.1000	-1.26093E+006	446.831
344.0000	-1.68902E+006	446.109
343.9000	-1.71454E+006	445.39
343.8000	-1.50594E+006	444.867
343.7000	-1.455E+006	444.417
343.6000	-1.25456E+006	443.739
343.5000	-1.05371E+006	443.255
343.4000	-882238	442.854
343.3000	-876485	442.217
343.2000	-691559	441.755
343.1000	-846283	441.351
343.0000	-1.26333E+006	440.732
342.9000	-1.4814E+006	440.101
342.8000	-1.49044E+006	439.635
342.7000	-1.45954E+006	438.997
342.6000	-1.47742E+006	438.338
342.5000	-1.24897E+006	437.844
342.4000	-1.09208E+006	437.227
342.3000	-741022	436.605
342.2000	-393444	436.128
342.1000	-462832	435.508
342.0000	-702888	434.886
341.9000	-765332	434.445
341.8000	-552674	433.882
341.7000	-698534	433.307
341.6000	-1.15982E+006	432.874
341.5000	-1.2097E+006	432.33
341.4000	-1.22237E+006	431.781
341.3000	-985280	431.378
341.2000	-607011	430.823
341.1000	-449806	430.247
341.0000	-678738	429.807
340.9000	-975908	429.235
340.8000	-868152	428.655
340.7000	-843829	428.198
340.6000	-1.15376E+006	427.614
340.5000	-1.2906E+006	427.029
340.4000	-1.44473E+006	426.594
340.3000	-1.51193E+006	426.025
340.2000	-1.40635E+006	425.454
340.1000	-1.10487E+006	425.038
340.0000	-741453	424.528
339.9000	-618137	424.016
339.8000	-390641	423.644
339.7000	-373185	423.165
339.6000	-280508	422.686
339.5000	-373024	422.356
339.4000	-562714	421.893
339.3000	-757226	421.403
339.2000	-857425	420.868
339.1000	-893146	420.381
339.0000	-770116	419.877
338.9000	-738626	419.302
338.8000	-815412	418.769
338.7000	-908845	418.224
338.6000	-725069	417.644
338.5000	-593014	417.138
338.4000	-513368	416.757
338.3000	-493304	416.297
338.2000	-601436	415.835
338.1000	-735808	415.509
338.0000	-598584	415.079
337.9000	-580974	414.643
337.8000	-612881	414.341
337.7000	-621953	413.95
337.6000	-642463	413.545
337.5000	-637105	413.232
337.4000	-781309	412.804
337.3000	-808820	412.357
337.2000	-816465	411.865
337.1000	-992970	411.421
337.0000	-1.10909E+006	410.968
336.9000	-1.22584E+006	410.48
336.8000	-1.38002E+006	410.045
336.7000	-1.39459E+006	409.611
336.6000	-1.15683E+006	409.148
336.5000	-1.02463E+006	408.736
336.4000	-923569	408.449
336.3000	-788837	408.055
336.2000	-637214	407.65
336.1000	-633831	407.35
336.0000	-484134	406.971
335.9000	-388024	406.567
335.8000	-467888	406.113
335.7000	-468869	405.701
335.6000	-542066	405.277
335.5000	-722114	404.832
335.4000	-814358	404.445
335.3000	-756738	404.061
335.2000	-701467	403.651
335.1000	-682601	403.293
335.0000	-645978	403.058
334.9000	-694389	402.718
334.8000	-682533	402.369
334.7000	-634281	401.997
334.6000	-431771	401.677
334.5000	-238773	401.347
334.4000	-146487	400.948
334.3000	-251905	400.571
334.2000	-386918	400.18
334.1000	-405774	399.766
334.0000	-444250	399.404
333.9000	-289026	399.135
333.8000	-215654	398.775
333.7000	-284139	398.404
333.6000	-319364	398.007
333.5000	-297041	397.668
333.4000	-140094	397.334
333.3000	-132054	396.975
333.2000	-151844	396.664
333.1000	-290061	396.348
333.0000	-433824	396.015
332.9000	-604467	395.718
332.8000	-726421	395.368
332.7000	-880440	395.052
332.6000	-1.01502E+006	394.723
332.5000	-1.08353E+006	394.369
332.4000	-1.03857E+006	394.054
332.3000	-922457	393.735
332.2000	-672018	393.362
332.1000	-237076	393.023
332.0000	78211.8	392.668
331.9000	109628	392.367
331.8000	21208.8	392.066
331.7000	-87559	391.732
331.6000	-374951	391.424
331.5000	-555769	390.993
331.4000	-726312	390.655
331.3000	-922033	390.362
331.2000	-1.13353E+006	390.037
331.1000	-1.37756E+006	389.742
331.0000	-1.47022E+006	389.44
330.9000	-1.41376E+006	389.127
330.8000	-1.26761E+006	388.85
330.7000	-1.15495E+006	388.537
330.6000	-1.08584E+006	388.264
330.5000	-1.20786E+006	387.986
330.4000	-1.26964E+006	387.68
330.3000	-1.15648E+006	387.42
330.2000	-939098	387.06
330.1000	-860622	386.764
330.0000	-766900	386.502
329.9000	-565816	386.21
329.8000	-385064	385.952
329.7000	-188554	385.612
329.6000	-273088	385.341
329.5000	-432303	385.1
329.4000	-399452	384.794
329.3000	-330318	384.516
329.2000	-185381	384.138
329.1000	-177240	383.84
329.0000	-354080	383.582
328.9000	-618779	383.281
328.8000	-609427	383.012
328.7000	-446024	382.663
328.6000	-342228	382.416
328.5000	-370543	382.218
328.4000	-492034	381.955
328.3000	-737890	381.717
328.2000	-830119	381.425
328.1000	-927970	381.202
328.0000	-1.01292E+006	381.011
327.9000	-1.01461E+006	380.73
327.8000	-1.08106E+006	380.465
327.7000	-1.20297E+006	380.184
327.6000	-1.34207E+006	380.001
327.5000	-1.46205E+006	379.866
327.4000	-1.61207E+006	379.574
327.3000	-1.44137E+006	379.297
327.2000	-1.3448E+006	378.999
327.1000	-1.40599E+006	378.806
327.0000	-1.51426E+006	378.665
326.9000	-1.63541E+006	378.385
326.8000	-1.50184E+006	378.093
326.7000	-1.22164E+006	377.775
326.6000	-998230	377.592
326.5000	-1.04402E+006	377.471
326.4000	-1.12245E+006	377.182
326.3000	-1.2477E+006	376.882
326.2000	-1.31929E+006	376.586
326.1000	-1.15581E+006	376.407
326.0000	-1.01647E+006	376.098
325.9000	-1.15412E+006	375.8
325.8000	-1.25038E+006	375.507
325.7000	-1.42049E+006	375.237
325.6000	-1.41166E+006	375.103
325.5000	-1.22216E+006	374.824
325.4000	-895322	374.537
325.3000	-829751	374.23
325.2000	-845275	374.069
325.1000	-911375	373.972
325.0000	-830890	373.689
324.9000	-589686	373.385
324.8000	-298024	373.082
324.7000	-228657	372.93
324.6000	-352306	372.856
324.5000	-495560	372.578
324.4000	-604026	372.285
324.3000	-670380	372.017
324.2000	-806351	371.882
324.1000	-895945	371.626
324.0000	-1.08833E+006	371.348
323.9000	-1.15425E+006	371.055
323.8000	-1.17938E+006	370.791
323.7000	-1.08254E+006	370.669
323.6000	-1.08989E+006	370.4
323.5000	-1.12957E+006	370.094
323.4000	-985852	369.805
323.3000	-827182	369.657
323.2000	-760006	369.574
323.1000	-852406	369.311
323.0000	-865601	369.024
322.9000	-869399	368.738
322.8000	-783683	368.606
322.7000	-413940	368.365
322.6000	-126943	368.086
322.5000	-50418.1	367.806
322.4000	45365	367.527
322.3000	197468	367.363
322.2000	179417	367.058
322.1000	120018	366.723
322.0000	34147.2	366.397
321.9000	-142793	366.206
321.8000	-491201	365.909
321.7000	-793658	365.59
321.6000	-989634	365.259
321.5000	-1.26624E+006	364.959
321.4000	-1.56893E+006	364.809
321.3000	-1.57147E+006	364.601
321.2000	-1.43466E+006	364.388
321.1000	-1.28956E+006	364.178
321.0000	-1.06929E+006	364.11
320.9000	-876058	363.957
320.8000	-724307	363.804
320.7000	-642062	363.664
320.6000	-412970	363.521
320.5000	-351985	363.48
320.4000	-451052	363.304
320.3000	-730057	363.106
320.2000	-939241	362.923
320.1000	-1.17313E+006	362.854
320.0000	-1.31819E+006	362.693
319.9000	-1.1967E+006	362.512
319.8000	-1.06612E+006	362.321
319.7000	-965310	362.121
319.6000	-886948	361.922
319.5000	-885249	361.783
319.4000	-999389	361.619
319.3000	-1.01445E+006	361.413
319.2000	-980590	361.309
319.1000	-1.03999E+006	361.097
319.0000	-1.05159E+006	360.869
318.9000	-1.08284E+006	360.644
318.8000	-1.16081E+006	360.507
318.7000	-1.14223E+006	360.254
318.6000	-898347	359.996
318.5000	-678614	359.778
318.4000	-522662	359.562
318.3000	-369272	359.357
318.2000	-326274	359.21
318.1000	-338206	359.058
318.0000	-455890	358.878
317.9000	-542309	358.81
317.8000	-569992	358.705
317.7000	-644226	358.574
317.6000	-786366	358.395
317.5000	-823813	358.286
317.4000	-930505	358.094
317.3000	-989562	357.892
317.2000	-901374	357.688
317.1000	-753182	357.487
317.0000	-768097	357.225
316.9000	-799196	356.996
316.8000	-717617	356.8
316.7000	-848359	356.602
316.6000	-957325	356.424
316.5000	-989177	356.289
316.4000	-1.05038E+006	356.122
316.3000	-1.03756E+006	355.953
316.2000	-1.09576E+006	355.788
316.1000	-1.07641E+006	355.668
316.0000	-1.1627E+006	355.545
315.9000	-1.27743E+006	355.38
315.8000	-1.39578E+006	355.26
315.7000	-1.46081E+006	355.073
315.6000	-1.50956E+006	354.916
315.5000	-1.63107E+006	354.734
315.4000	-1.61019E+006	354.618
315.3000	-1.60693E+006	354.412
315.2000	-1.54473E+006	354.202
315.1000	-1.5051E+006	354.011
315.0000	-1.32297E+006	353.83
314.9000	-1.21967E+006	353.648
314.8000	-1.12729E+006	353.49
314.7000	-1.04611E+006	353.329
314.6000	-1.03413E+006	353.171
314.5000	-1.02102E+006	353.024
314.4000	-991963	352.916
314.3000	-881353	352.778
314.2000	-786130	352.644
314.1000	-794970	352.457
314.0000	-904989	352.29
313.9000	-941050	352.118
313.8000	-953079	351.955
313.7000	-928599	351.734
313.6000	-908428	351.533
313.5000	-987338	351.345
313.4000	-1.12486E+006	351.161
313.3000	-1.20767E+006	350.989
313.2000	-1.23265E+006	350.845
313.1000	-1.25106E+006	350.694
313.0000	-1.26742E+006	350.544
312.9000	-1.27448E+006	350.4
312.8000	-1.41642E+006	350.295
312.7000	-1.58179E+006	350.157
312.6000	-1.52931E+006	350.026
312.5000	-1.51706E+006	349.86
312.4000	-1.48169E+006	349.707
312.3000	-1.41965E+006	349.538
312.2000	-1.41555E+006	349.366
312.1000	-1.59536E+006	349.145
312.0000	-1.62262E+006	348.94
311.9000	-1.52549E+006	348.74
311.8000	-1.48309E+006	348.505
311.7000	-1.56796E+006	348.311
311.6000	-1.58128E+006	348.112
311.5000	-1.73545E+006	347.943
311.4000	-1.82299E+006	347.735
311.3000	-1.66384E+006	347.599
311.2000	-1.47562E+006	347.463
311.1000	-1.35251E+006	347.352
311.0000	-1.39525E+006	347.229
310.9000	-1.27577E+006	347.131
310.8000	-1.10568E+006	347.021
310.7000	-913006	346.929
310.6000	-718149	346.799
310.5000	-793158	346.684
310.4000	-913516	346.571
310.3000	-925556	346.472
310.2000	-876918	346.385
310.1000	-852712	346.311
310.0000	-892225	346.231
309.9000	-912424	346.162
309.8000	-911592	346.099
309.7000	-826120	346.012
309.6000	-688995	345.944
309.5000	-670933	345.835
309.4000	-697664	345.739
309.3000	-745923	345.597
309.2000	-793433	345.479
309.1000	-869642	345.304
309.0000	-874084	345.162
308.9000	-854887	345.031
308.8000	-881135	344.91
308.7000	-954199	344.799
308.6000	-1.04719E+006	344.704
308.5000	-1.10491E+006	344.601
308.4000	-1.15939E+006	344.484
308.3000	-1.14923E+006	344.411
308.2000	-1.20759E+006	344.299
308.1000	-1.29137E+006	344.214
308.0000	-1.3987E+006	344.108
307.9000	-1.38297E+006	344.02
307.8000	-1.26833E+006	343.885
307.7000	-1.22435E+006	343.777
307.6000	-1.13914E+006	343.653
307.5000	-1.0332E+006	343.488
307.4000	-1.01767E+006	343.363
307.3000	-1.0931E+006	343.239
307.2000	-1.07615E+006	343.143
307.1000	-1.14264E+006	343.006
307.0000	-1.29357E+006	342.907
306.9000	-1.36753E+006	342.808
306.8000	-1.36106E+006	342.745
306.7000	-1.37106E+006	342.676
306.6000	-1.36817E+006	342.588
306.5000	-1.2942E+006	342.51
306.4000	-1.1927E+006	342.379
306.3000	-1.04858E+006	342.284
306.2000	-987456	342.157
306.1000	-904224	342.04
306.0000	-861474	341.888
305.9000	-888349	341.774
305.8000	-943159	341.694
305.7000	-1.0604E+006	341.569
305.6000	-1.07135E+006	341.488
305.5000	-1.13094E+006	341.413
305.4000	-1.05879E+006	341.374
305.3000	-1.04481E+006	341.284
305.2000	-1.21302E+006	341.217
305.1000	-1.3598E+006	341.138
305.0000	-1.40736E+006	341.006
304.9000	-1.38748E+006	340.914
304.8000	-1.3882E+006	340.806
304.7000	-1.41308E+006	340.705
304.6000	-1.52724E+006	340.563
304.5000	-1.61431E+006	340.456
304.4000	-1.39729E+006	340.38
304.3000	-1.21723E+006	340.272
304.2000	-1.18114E+006	340.211
304.1000	-1.01834E+006	340.166
304.0000	-1.04954E+006	340.136
303.9000	-1.032E+006	340.054
303.8000	-1.08165E+006	339.976
303.7000	-1.11801E+006	339.922
303.6000	-1.29318E+006	339.809
303.5000	-1.39965E+006	339.732
303.4000	-1.39684E+006	339.639
303.3000	-1.47207E+006	339.515
303.2000	-1.45048E+006	339.397
303.1000	-1.42905E+006	339.312
303.0000	-1.35754E+006	339.267
302.9000	-1.31756E+006	339.176
302.8000	-1.33497E+006	339.107
302.7000	-1.37246E+006	339.057
302.6000	-1.33493E+006	338.973
302.5000	-1.29814E+006	338.922
302.4000	-1.34932E+006	338.864
302.3000	-1.37986E+006	338.762
302.2000	-1.3463E+006	338.662
302.1000	-1.30325E+006	338.564
302.0000	-1.28526E+006	338.496
301.9000	-1.22616E+006	338.398
301.8000	-1.26477E+006	338.321
301.7000	-1.43268E+006	338.262
301.6000	-1.59127E+006	338.172
301.5000	-1.6377E+006	338.124
301.4000	-1.7346E+006	338.075
301.3000	-1.78693E+006	337.996
301.2000	-1.69454E+006	337.929
301.1000	-1.5812E+006	337.867
301.0000	-1.49316E+006	337.831
300.9000	-1.44579E+006	337.75
300.8000	-1.29108E+006	337.671
300.7000	-1.28244E+006	337.605
300.6000	-1.22597E+006	337.523
300.5000	-1.20431E+006	337.46
300.4000	-1.27023E+006	337.411
300.3000	-1.39969E+006	337.337
300.2000	-1.38928E+006	337.266
300.1000	-1.38759E+006	337.212
300.0000	-1.36028E+006	337.148
299.9000	-1.20669E+006	337.097
299.8000	-1.1451E+006	337.044
299.7000	-1.15496E+006	336.97
299.6000	-1.11073E+006	336.904
299.5000	-1.12264E+006	336.834
299.4000	-1.16841E+006	336.776
299.3000	-1.26922E+006	336.7
299.2000	-1.27468E+006	336.645
299.1000	-1.5626E+006	336.599
299.0000	-1.81204E+006	336.526
298.9000	-1.99173E+006	336.474
298.8000	-2.0366E+006	336.438
298.7000	-1.9553E+006	336.386
298.6000	-1.88357E+006	336.34
298.5000	-1.84063E+006	336.29
298.4000	-1.93661E+006	336.223
298.3000	-1.79514E+006	336.169
298.2000	-1.49743E+006	336.117
298.1000	-1.33738E+006	336.055
298.0000	-1.25292E+006	335.999
297.9000	-1.34863E+006	335.943
297.8000	-1.35391E+006	335.873
297.7000	-1.44546E+006	335.819
297.6000	-1.45395E+006	335.778
297.5000	-1.52022E+006	335.712
297.4000	-1.65986E+006	335.662
297.3000	-1.76373E+006	335.62
297.2000	-1.76387E+006	335.556
297.1000	-1.74828E+006	335.506
297.0000	-1.76893E+006	335.455
296.9000	-1.77652E+006	335.383
296.8000	-1.73643E+006	335.327
296.7000	-1.76658E+006	335.278
296.6000	-1.74586E+006	335.24
296.5000	-1.72324E+006	335.191
296.4000	-1.70525E+006	335.15
296.3000	-1.69077E+006	335.119
296.2000	-1.67055E+006	335.075
296.1000	-1.64523E+006	335.039
296.0000	-1.64731E+006	335.011
295.9000	-1.69618E+006	334.966
295.8000	-1.64917E+006	334.903
295.7000	-1.61476E+006	334.859
295.6000	-1.56563E+006	334.813
295.5000	-1.59831E+006	334.748
295.4000	-1.62691E+006	334.674
295.3000	-1.63673E+006	334.628
295.2000	-1.60548E+006	334.571
295.1000	-1.5265E+006	334.502
295.0000	-1.46358E+006	334.462
294.9000	-1.59596E+006	334.41
294.8000	-1.71031E+006	334.339
294.7000	-1.72249E+006	334.3
294.6000	-1.68636E+006	334.268
294.5000	-1.69651E+006	334.216
294.4000	-1.69067E+006	334.176
294.3000	-1.64797E+006	334.146
294.2000	-1.58267E+006	334.099
294.1000	-1.52933E+006	334.064
294.0000	-1.49069E+006	334.04
293.9000	-1.56804E+006	333.989
293.8000	-1.59232E+006	333.954
293.7000	-1.56652E+006	333.928
293.6000	-1.61906E+006	333.876
293.5000	-1.69483E+006	333.813
293.4000	-1.83536E+006	333.776
293.3000	-1.89474E+006	333.732
293.2000	-1.91989E+006	333.677
293.1000	-1.90838E+006	333.651
293.0000	-1.79237E+006	333.607
292.9000	-1.7531E+006	333.552
292.8000	-1.77741E+006	333.527
292.7000	-1.73896E+006	333.499
292.6000	-1.63171E+006	333.461
292.5000	-1.49809E+006	333.405
292.4000	-1.46153E+006	333.369
292.3000	-1.37713E+006	333.32
292.2000	-1.42957E+006	333.266
292.1000	-1.50882E+006	333.238
292.0000	-1.61707E+006	333.192
291.9000	-1.62635E+006	333.137
291.8000	-1.69542E+006	333.085
291.7000	-1.80099E+006	333.058
291.6000	-1.87304E+006	333.012
291.5000	-1.89725E+006	332.959
291.4000	-1.87733E+006	332.932
291.3000	-1.89644E+006	332.879
291.2000	-1.85381E+006	332.813
291.1000	-1.82874E+006	332.747
291.0000	-1.68478E+006	332.7
290.9000	-1.62005E+006	332.631
290.8000	-1.60891E+006	332.541
290.7000	-1.56964E+006	332.448
290.6000	-1.47048E+006	332.346
290.5000	-1.38924E+006	332.219
290.4000	-1.38321E+006	332.084
290.3000	-1.2814E+006	331.967
290.2000	-1.36742E+006	331.821
290.1000	-1.47754E+006	331.664
290.0000	-1.44873E+006	331.523
289.9000	-1.46452E+006	331.418
289.8000	-1.51103E+006	331.318
289.7000	-1.51123E+006	331.24
289.6000	-1.3932E+006	331.203
289.5000	-1.40877E+006	331.204
289.4000	-1.41979E+006	331.227
289.3000	-1.31954E+006	331.288
289.2000	-1.2077E+006	331.369
289.1000	-1.14258E+006	331.471
289.0000	-1.10329E+006	331.571
288.9000	-1.1072E+006	331.674
288.8000	-1.23283E+006	331.769
288.7000	-1.29457E+006	331.856
288.6000	-1.19794E+006	331.924
288.5000	-1.17513E+006	331.977
288.4000	-1.22562E+006	332.013
288.3000	-1.28467E+006	332.041
288.2000	-1.31409E+006	332.043
288.1000	-1.40413E+006	332.035
288.0000	-1.36658E+006	332.013
287.9000	-1.29366E+006	331.98
287.8000	-1.27109E+006	331.958
287.7000	-1.31103E+006	331.929
287.6000	-1.22287E+006	331.904
287.5000	-1.17144E+006	331.864
287.4000	-1.22092E+006	331.843
287.3000	-1.18069E+006	331.824
287.2000	-1.19497E+006	331.805
287.1000	-1.27869E+006	331.787
287.0000	-1.29258E+006	331.745
286.9000	-1.26473E+006	331.725
286.8000	-1.32301E+006	331.708
286.7000	-1.45582E+006	331.689
286.6000	-1.3719E+006	331.662
286.5000	-1.38369E+006	331.648
286.4000	-1.35294E+006	331.643
286.3000	-1.30379E+006	331.642
286.2000	-1.32621E+006	331.641
286.1000	-1.42308E+006	331.628
286.0000	-1.49451E+006	331.627
285.9000	-1.50016E+006	331.62
285.8000	-1.578E+006	331.617
285.7000	-1.6637E+006	331.596
285.6000	-1.7292E+006	331.568
285.5000	-1.75044E+006	331.562
285.4000	-1.77183E+006	331.56
285.3000	-1.60956E+006	331.566
285.2000	-1.487E+006	331.548
285.1000	-1.40661E+006	331.534
285.0000	-1.42471E+006	331.539
284.9000	-1.47324E+006	331.532
284.8000	-1.55444E+006	331.53
284.7000	-1.63699E+006	331.508
284.6000	-1.6287E+006	331.486
284.5000	-1.74786E+006	331.481
284.4000	-1.92019E+006	331.473
284.3000	-1.98666E+006	331.476
284.2000	-1.99649E+006	331.456
284.1000	-1.89801E+006	331.447
284.0000	-1.85942E+006	331.428
283.9000	-1.8953E+006	331.428
283.8000	-1.90703E+006	331.438
283.7000	-1.87746E+006	331.427
283.6000	-1.848E+006	331.414
283.5000	-1.7335E+006	331.404
283.4000	-1.70524E+006	331.396
283.3000	-1.70967E+006	331.405
283.2000	-1.67648E+006	331.417
283.1000	-1.5027E+006	331.429
283.0000	-1.29483E+006	331.421
282.9000	-1.34423E+006	331.414
282.8000	-1.44833E+006	331.408
282.7000	-1.50128E+006	331.423
282.6000	-1.50993E+006	331.442
282.5000	-1.44135E+006	331.449
282.4000	-1.29986E+006	331.454
282.3000	-1.27135E+006	331.452
282.2000	-1.39653E+006	331.449
282.1000	-1.47999E+006	331.468
282.0000	-1.4547E+006	331.482
281.9000	-1.39408E+006	331.483
281.8000	-1.39152E+006	331.478
281.7000	-1.40581E+006	331.471
281.6000	-1.45619E+006	331.464
281.5000	-1.50548E+006	331.459
281.4000	-1.51444E+006	331.474
281.3000	-1.48689E+006	331.48
281.2000	-1.4237E+006	331.48
281.1000	-1.31789E+006	331.478
281.0000	-1.41481E+006	331.471
280.9000	-1.52533E+006	331.463
280.8000	-1.5433E+006	331.453
280.7000	-1.58961E+006	331.45
280.6000	-1.61789E+006	331.453
280.5000	-1.60268E+006	331.446
280.4000	-1.6477E+006	331.439
280.3000	-1.68203E+006	331.432
280.2000	-1.63471E+006	331.426
280.1000	-1.56297E+006	331.419
280.0000	-1.57106E+006	331.416
279.9000	-1.52329E+006	331.407
279.8000	-1.40277E+006	331.389
279.7000	-1.23943E+006	331.385
279.6000	-1.16437E+006	331.381
279.5000	-1.08925E+006	331.378
279.4000	-1.03479E+006	331.374
279.3000	-1.01738E+006	331.369
279.2000	-1.02781E+006	331.365
279.1000	-1.03104E+006	331.365
279.0000	-1.14418E+006	331.367
278.9000	-1.23369E+006	331.357
278.8000	-1.23191E+006	331.362
278.7000	-1.28028E+006	331.372
278.6000	-1.42582E+006	331.385
278.5000	-1.4362E+006	331.408
278.4000	-1.46955E+006	331.425
278.3000	-1.47902E+006	331.444
278.2000	-1.4629E+006	331.46
278.1000	-1.49094E+006	331.471
278.0000	-1.54625E+006	331.474
277.9000	-1.55373E+006	331.47
277.8000	-1.57971E+006	331.463
277.7000	-1.62937E+006	331.455
277.6000	-1.64734E+006	331.468
277.5000	-1.59279E+006	331.481
277.4000	-1.55577E+006	331.497
277.3000	-1.54338E+006	331.516
277.2000	-1.49572E+006	331.532
277.1000	-1.4268E+006	331.547
277.0000	-1.37595E+006	331.563
276.9000	-1.24845E+006	331.58
276.8000	-1.19067E+006	331.582
276.7000	-1.18241E+006	331.576
276.6000	-1.18597E+006	331.574
276.5000	-1.15116E+006	331.576
276.4000	-1.09327E+006	331.578
276.3000	-1.16451E+006	331.584
276.2000	-1.15591E+006	331.59
276.1000	-1.22182E+006	331.594
276.0000	-1.29658E+006	331.615
275.9000	-1.38877E+006	331.639
275.8000	-1.39299E+006	331.664
275.7000	-1.37119E+006	331.686
275.6000	-1.29635E+006	331.712
275.5000	-1.24765E+006	331.729
275.4000	-1.24236E+006	331.75
275.3000	-1.21675E+006	331.776
275.2000	-1.14188E+006	331.792
275.1000	-1.02479E+006	331.804
275.0000	-916368	331.811
274.9000	-880253	331.82
274.8000	-995316	331.826
274.7000	-1.122E+006	331.837
274.6000	-1.24296E+006	331.844
274.5000	-1.28983E+006	331.851
274.4000	-1.37496E+006	331.859
274.3000	-1.49375E+006	331.865
274.2000	-1.57551E+006	331.87
274.1000	-1.66185E+006	331.882
274.0000	-1.63054E+006	331.899
273.9000	-1.62648E+006	331.915
273.8000	-1.56254E+006	331.929
273.7000	-1.45475E+006	331.949
273.6000	-1.35422E+006	331.966
273.5000	-1.28084E+006	331.982
273.4000	-1.25665E+006	332.002
273.3000	-1.30935E+006	332.022
273.2000	-1.27133E+006	332.034
273.1000	-1.21098E+006	332.043
273.0000	-1.10049E+006	332.057
272.9000	-1.05362E+006	332.068
272.8000	-1.00742E+006	332.082
272.7000	-1.03193E+006	332.097
272.6000	-1.03545E+006	332.115
272.5000	-991868	332.132
272.4000	-928205	332.154
272.3000	-879276	332.182
272.2000	-832089	332.211
272.1000	-871955	332.233
272.0000	-965864	332.25
271.9000	-910515	332.269
271.8000	-829652	332.281
271.7000	-832702	332.292
271.6000	-822948	332.301
271.5000	-919333	332.308
271.4000	-927467	332.313
271.3000	-917567	332.319
271.2000	-913322	332.329
271.1000	-961883	332.341
271.0000	-1.07639E+006	332.349
270.9000	-972656	332.35
270.8000	-837537	332.348
270.7000	-825952	332.344
270.6000	-874697	332.335
270.5000	-922024	332.329
270.4000	-951509	332.325
270.3000	-925294	332.313
270.2000	-817682	332.307
270.1000	-973902	332.303
270.0000	-1.19023E+006	332.303
269.9000	-1.29189E+006	332.31
269.8000	-1.25244E+006	332.321
269.7000	-1.25135E+006	332.329
269.6000	-1.24226E+006	332.341
269.5000	-1.22211E+006	332.358
269.4000	-1.23426E+006	332.367
269.3000	-1.1781E+006	332.387
269.2000	-1.05026E+006	332.412
269.1000	-992941	332.436
269.0000	-944453	332.455
268.9000	-980893	332.483
268.8000	-981155	332.514
268.7000	-897664	332.556
268.6000	-789998	332.611
268.5000	-780983	332.668
268.4000	-832185	332.715
268.3000	-931368	332.748
268.2000	-995151	332.789
268.1000	-1.01193E+006	332.831
268.0000	-819594	332.892
267.9000	-792153	332.939
267.8000	-836832	332.984
267.7000	-842232	333.023
267.6000	-830506	333.069
267.5000	-758037	333.123
267.4000	-793220	333.166
267.3000	-855421	333.211
267.2000	-1.04466E+006	333.243
267.1000	-1.19185E+006	333.278
267.0000	-1.25481E+006	333.308
266.9000	-1.24687E+006	333.348
266.8000	-1.2108E+006	333.386
266.7000	-1.17527E+006	333.415
266.6000	-1.07125E+006	333.462
266.5000	-987269	333.514
266.4000	-904648	333.567
266.3000	-917507	333.613
266.2000	-1.03023E+006	333.666
266.1000	-1.0713E+006	333.716
266.0000	-1.21114E+006	333.755
265.9000	-1.33354E+006	333.807
265.8000	-1.42676E+006	333.865
265.7000	-1.44817E+006	333.931
265.6000	-1.4925E+006	333.995
265.5000	-1.47677E+006	334.061
265.4000	-1.40753E+006	334.113
265.3000	-1.38028E+006	334.166
265.2000	-1.26626E+006	334.237
265.1000	-1.04726E+006	334.318
265.0000	-934772	334.395
264.9000	-897795	334.471
264.8000	-945753	334.523
264.7000	-899548	334.577
264.6000	-857372	334.643
264.5000	-750331	334.718
264.4000	-745938	334.786
264.3000	-825111	334.837
264.2000	-914590	334.889
264.1000	-849348	334.942
264.0000	-766513	335.002
263.9000	-760304	335.071
263.8000	-787962	335.129
263.7000	-919207	335.185
263.6000	-1.01308E+006	335.252
263.5000	-942415	335.334
263.4000	-890262	335.419
263.3000	-948839	335.478
263.2000	-992047	335.547
263.1000	-987770	335.625
263.0000	-1.12308E+006	335.709
262.9000	-1.1638E+006	335.79
262.8000	-983699	335.877
262.7000	-907776	335.955
262.6000	-970568	336.03
262.5000	-967365	336.122
262.4000	-933985	336.205
262.3000	-889765	336.282
262.2000	-673714	336.357
262.1000	-564233	336.434
262.0000	-678418	336.493
261.9000	-722913	336.565
261.8000	-807856	336.636
261.7000	-860519	336.693
261.6000	-987888	336.761
261.5000	-1.07322E+006	336.834
261.4000	-1.15512E+006	336.905
261.3000	-1.2218E+006	336.97
261.2000	-1.14696E+006	337.052
261.1000	-1.15651E+006	337.135
261.0000	-1.23204E+006	337.227
260.9000	-1.09536E+006	337.321
260.8000	-1.05161E+006	337.412
260.7000	-1.0693E+006	337.501
260.6000	-1.08941E+006	337.585
260.5000	-988117	337.677
260.4000	-1.02343E+006	337.77
260.3000	-1.14528E+006	337.851
260.2000	-1.04991E+006	337.923
260.1000	-1.0899E+006	337.996
260.0000	-954815	338.075
259.9000	-800359	338.145
259.8000	-696343	338.229
259.7000	-703429	338.319
259.6000	-743331	338.396
259.5000	-722421	338.477
259.4000	-678292	338.566
259.3000	-537993	338.648
259.2000	-576545	338.74
259.1000	-592088	338.835
259.0000	-555521	338.916
258.9000	-577325	338.996
258.8000	-598752	339.086
258.7000	-575333	339.167
258.6000	-626890	339.249
258.5000	-790897	339.338
258.4000	-929967	339.41
258.3000	-1.02289E+006	339.482
258.2000	-1.12067E+006	339.571
258.1000	-1.16979E+006	339.656
258.0000	-1.1985E+006	339.736
257.9000	-1.14429E+006	339.828
257.8000	-1.10434E+006	339.902
257.7000	-871794	339.962
257.6000	-819470	340.035
257.5000	-885487	340.11
257.4000	-931933	340.195
257.3000	-905332	340.274
257.2000	-871498	340.362
257.1000	-803772	340.452
257.0000	-757818	340.545
256.9000	-775202	340.651
256.8000	-652189	340.749
256.7000	-498618	340.852
256.6000	-278186	340.953
256.5000	-218571	341.052
256.4000	-152797	341.161
256.3000	-95350.7	341.252
256.2000	-76397.3	341.338
256.1000	-25280.2	341.43
256.0000	-172680	341.509
255.9000	-314024	341.596
255.8000	-452829	341.67
255.7000	-593920	341.748
255.6000	-649379	341.825
255.5000	-769353	341.9
255.4000	-861182	341.988
255.3000	-1.04931E+006	342.064
255.2000	-1.07402E+006	342.156
255.1000	-988947	342.252
255.0000	-859461	342.359
254.9000	-838900	342.452
254.8000	-846244	342.54
254.7000	-783047	342.637
254.6000	-794393	342.723
254.5000	-688208	342.822
254.4000	-687796	342.914
254.3000	-786827	343.008
254.2000	-780122	343.095
254.1000	-707239	343.183
254.0000	-726392	343.258
253.9000	-777037	343.331
253.8000	-685432	343.411
253.7000	-661846	343.497
253.6000	-675462	343.576
253.5000	-495183	343.659
253.4000	-493026	343.723
253.3000	-478108	343.796
253.2000	-511926	343.88
253.1000	-577357	343.976
253.0000	-667035	344.065
252.9000	-782245	344.152
252.8000	-819200	344.237
252.7000	-837724	344.327
252.6000	-862967	344.417
252.5000	-1.02595E+006	344.52
252.4000	-1.18128E+006	344.618
252.3000	-1.19339E+006	344.717
252.2000	-1.15293E+006	344.805
252.1000	-1.17081E+006	344.889
252.0000	-1.07657E+006	344.972
251.9000	-1.04083E+006	345.051
251.8000	-1.07252E+006	345.149
251.7000	-1.0594E+006	345.235
251.6000	-857380	345.327
251.5000	-738987	345.41
251.4000	-669954	345.506
251.3000	-558824	345.605
251.2000	-403472	345.711
251.1000	-290962	345.826
251.0000	-237748	345.931
250.9000	-204790	346.04
250.8000	-202588	346.148
250.7000	-241162	346.255
250.6000	-147362	346.363
250.5000	-65812.5	346.47
250.4000	-201621	346.569
250.3000	-387469	346.653
250.2000	-637971	346.738
250.1000	-684812	346.811
250.0000	-744683	346.88
249.9000	-850984	346.959
249.8000	-935442	347.027
249.7000	-1.07913E+006	347.093
249.6000	-1.10459E+006	347.171
249.5000	-1.10106E+006	347.256
249.4000	-1.00232E+006	347.351
249.3000	-906115	347.447
249.2000	-848219	347.546
249.1000	-785436	347.644
249.0000	-683382	347.741
248.9000	-608812	347.843
248.8000	-602045	347.95
248.7000	-520366	348.055
248.6000	-482129	348.15
248.5000	-542844	348.241
248.4000	-523590	348.342
248.3000	-508253	348.438
248.2000	-600660	348.541
248.1000	-770550	348.643
248.0000	-883366	348.734
247.9000	-985739	348.821
247.8000	-1.20174E+006	348.906
247.7000	-1.32608E+006	348.994
247.6000	-1.37878E+006	349.089
247.5000	-1.39036E+006	349.182
247.4000	-1.34793E+006	349.264
247.3000	-1.19064E+006	349.341
247.2000	-1.10409E+006	349.434
247.1000	-1.03898E+006	349.53
247.0000	-853335	349.634
246.9000	-651434	349.739
246.8000	-494375	349.823
246.7000	-436871	349.9
246.6000	-372031	349.984
246.5000	-348215	350.08
246.4000	-235929	350.171
246.3000	-233213	350.253
246.2000	-152210	350.339
246.1000	-127023	350.435
246.0000	-137321	350.546
245.9000	-226552	350.658
245.8000	-195289	350.777
245.7000	-269800	350.905
245.6000	-427400	351.037
245.5000	-472665	351.176
245.4000	-385073	351.32
245.3000	-437573	351.45
245.2000	-467050	351.581
245.1000	-417362	351.711
245.0000	-527550	351.839
244.9000	-486217	351.951
244.8000	-471191	352.054
244.7000	-542049	352.162
244.6000	-649109	352.258
244.5000	-751092	352.346
244.4000	-847492	352.429
244.3000	-881090	352.51
244.2000	-822369	352.592
244.1000	-926817	352.691
244.0000	-870525	352.804
243.9000	-693753	352.917
243.8000	-771095	353.032
243.7000	-797065	353.161
243.6000	-706811	353.293
243.5000	-628576	353.425
243.4000	-722413	353.572
243.3000	-726043	353.718
243.2000	-763934	353.858
243.1000	-785062	353.988
243.0000	-818753	354.113
242.9000	-791345	354.241
242.8000	-899168	354.365
242.7000	-1.04914E+006	354.49
242.6000	-1.07181E+006	354.62
242.5000	-1.04503E+006	354.744
242.4000	-1.03751E+006	354.875
242.3000	-1.16949E+006	355.011
242.2000	-1.20079E+006	355.156
242.1000	-1.18117E+006	355.299
242.0000	-1.12669E+006	355.442
241.9000	-957931	355.586
241.8000	-913291	355.724
241.7000	-763492	355.867
241.6000	-482687	356.012
241.5000	-303664	356.153
241.4000	-157325	356.293
241.3000	-193216	356.428
241.2000	-136448	356.562
241.1000	-246555	356.699
241.0000	-263410	356.842
240.9000	-472118	356.986
240.8000	-727337	357.132
240.7000	-917264	357.278
240.6000	-950877	357.427
240.5000	-1.00454E+006	357.573
240.4000	-975703	357.725
240.3000	-899933	357.885
240.2000	-923580	358.048
240.1000	-904086	358.211
240.0000	-725767	358.372
239.9000	-635616	358.534
239.8000	-626142	358.701
239.7000	-523794	358.876
239.6000	-504827	359.058
239.5000	-614949	359.243
239.4000	-749067	359.427
239.3000	-741493	359.612
239.2000	-803497	359.792
239.1000	-855495	359.975
239.0000	-921370	360.163
238.9000	-937827	360.348
238.8000	-837685	360.538
238.7000	-674053	360.73
238.6000	-397442	360.918
238.5000	-302032	361.1
238.4000	-252622	361.281
238.3000	-223089	361.463
238.2000	-169041	361.644
238.1000	-41220.9	361.831
238.0000	-100618	362.013
237.9000	-131703	362.195
237.8000	-204586	362.37
237.7000	-129945	362.554
237.6000	-52930.2	362.746
237.5000	-27340.9	362.942
237.4000	-33237.4	363.135
237.3000	-133798	363.329
237.2000	-102895	363.529
237.1000	-21368.8	363.723
237.0000	-45592.8	363.914
236.9000	-127739	364.106
236.8000	-172242	364.301
236.7000	-185608	364.503
236.6000	-129892	364.701
236.5000	-57441	364.897
236.4000	-198057	365.086
236.3000	-453730	365.278
236.2000	-671273	365.479
236.1000	-773886	365.684
236.0000	-740954	365.897
235.9000	-730895	366.104
235.8000	-820967	366.314
235.7000	-861796	366.528
235.6000	-757977	366.749
235.5000	-534502	366.976
235.4000	-246941	367.206
235.3000	-79994.3	367.43
235.2000	103781	367.65
235.1000	102337	367.869
235.0000	55460.3	368.085
234.9000	-7563.38	368.298
234.8000	-79437.1	368.51
234.7000	-411943	368.714
234.6000	-700890	368.91
234.5000	-733601	369.116
234.4000	-824220	369.328
234.3000	-857544	369.541
234.2000	-1.00545E+006	369.745
234.1000	-1.00257E+006	369.956
234.0000	-849345	370.17
233.9000	-689680	370.384
233.8000	-304085	370.615
233.7000	-158731	370.842
233.6000	-167805	371.071
233.5000	-202615	371.302
233.4000	-193909	371.534
233.3000	-189062	371.765
233.2000	-516815	371.993
233.1000	-482435	372.222
233.0000	-637751	372.446
232.9000	-798317	372.67
232.8000	-926794	372.892
232.7000	-955680	373.119
232.6000	-880400	373.347
232.5000	-882835	373.577
232.4000	-828910	373.802
232.3000	-742887	374.031
232.2000	-724577	374.256
232.1000	-559793	374.485
232.0000	-576673	374.706
231.9000	-535752	374.925
231.8000	-409843	375.14
231.7000	-254632	375.364
231.6000	-209184	375.592
231.5000	32732.2	375.823
231.4000	119017	376.059
231.3000	-108238	376.284
231.2000	-84885.3	376.517
231.1000	-34795.6	376.748
231.0000	-123186	376.973
230.9000	-281971	377.196
230.8000	-374739	377.412
230.7000	-465839	377.637
230.6000	-716800	377.853
230.5000	-713073	378.082
230.4000	-756496	378.314
230.3000	-860377	378.549
230.2000	-1.03754E+006	378.786
230.1000	-1.05767E+006	379.032
230.0000	-877618	379.285
229.9000	-743435	379.527
229.8000	-895750	379.762
229.7000	-873122	379.988
229.6000	-1.02307E+006	380.209
229.5000	-1.21416E+006	380.418
229.4000	-1.33917E+006	380.623
229.3000	-1.53446E+006	380.819
229.2000	-1.83408E+006	381.009
229.1000	-2.07544E+006	381.201
229.0000	-2.09279E+006	381.406
228.9000	-2.11484E+006	381.615
228.8000	-2.09456E+006	381.828
228.7000	-1.85798E+006	382.063
228.6000	-1.65376E+006	382.306
228.5000	-1.44563E+006	382.555
228.4000	-1.16044E+006	382.816
228.3000	-940211	383.081
228.2000	-906232	383.34
228.1000	-716699	383.614
228.0000	-528189	383.887
227.9000	-456725	384.149
227.8000	-446761	384.399
227.7000	-367067	384.657
227.6000	-384676	384.907
227.5000	-503926	385.149
227.4000	-551952	385.39
227.3000	-688883	385.633
227.2000	-835374	385.868
227.1000	-923956	386.102
227.0000	-915541	386.338
226.9000	-1.07563E+006	386.566
226.8000	-1.14204E+006	386.8
226.7000	-1.0361E+006	387.037
226.6000	-986694	387.27
226.5000	-1.00983E+006	387.492
226.4000	-1.11796E+006	387.713
226.3000	-1.07708E+006	387.936
226.2000	-1.1963E+006	388.164
226.1000	-1.26433E+006	388.39
226.0000	-1.25304E+006	388.611
225.9000	-1.49016E+006	388.823
225.8000	-1.44994E+006	389.044
225.7000	-1.46141E+006	389.266
225.6000	-1.46903E+006	389.486
225.5000	-1.63346E+006	389.702
225.4000	-1.76026E+006	389.918
225.3000	-1.6215E+006	390.149
225.2000	-1.46718E+006	390.384
225.1000	-1.38394E+006	390.613
225.0000	-1.40213E+006	390.844
224.9000	-1.23779E+006	391.077
224.8000	-1.03068E+006	391.308
224.7000	-776091	391.536
224.6000	-642663	391.763
224.5000	-729611	391.981
224.4000	-883221	392.195
224.3000	-1.07451E+006	392.411
224.2000	-1.04278E+006	392.628
224.1000	-1.12125E+006	392.841
224.0000	-1.14555E+006	393.061
223.9000	-1.25538E+006	393.281
223.8000	-1.09568E+006	393.507
223.7000	-785107	393.732
223.6000	-490853	393.956
223.5000	-206865	394.178
223.4000	-32932.7	394.394
223.3000	-31293.1	394.603
223.2000	103422	394.809
223.1000	122638	395.015
223.0000	231917	395.221
222.9000	232988	395.428
222.8000	11654.7	395.63
222.7000	-36578.1	395.836
222.6000	58540.3	396.045
222.5000	281644	396.262
222.4000	303985	396.468
222.3000	213879	396.672
222.2000	93065	396.877
222.1000	-41312.1	397.075
222.0000	22439.3	397.277
221.9000	-35662.6	397.471
221.8000	-310059	397.66
221.7000	-725412	397.85
221.6000	-924776	398.049
221.5000	-1.00529E+006	398.252
221.4000	-941476	398.45
221.3000	-914805	398.651
221.2000	-991100	398.846
221.1000	-947882	399.046
221.0000	-695439	399.245
220.9000	-404428	399.446
220.8000	-290529	399.641
220.7000	-104957	399.831
220.6000	35442.8	400.024
220.5000	107015	400.219
220.4000	164965	400.409
220.3000	255623	400.603
220.2000	302450	400.801
220.1000	269955	400.996
220.0000	326170	401.192
219.9000	325427	401.39
219.8000	118913	401.585
219.7000	70434.8	401.779
219.6000	80292.2	401.97
219.5000	20240.6	402.162
219.4000	45275.4	402.355
219.3000	-68375.2	402.543
219.2000	-132328	402.732
219.1000	-347739	402.916
219.0000	-492176	403.102
218.9000	-595562	403.284
218.8000	-595511	403.474
218.7000	-673565	403.659
218.6000	-911520	403.838
218.5000	-1.02602E+006	404.018
218.4000	-1.0115E+006	404.205
218.3000	-733797	404.392
218.2000	-499590	404.583
218.1000	-240315	404.774
218.0000	-215703	404.961
217.9000	-180575	405.146
217.8000	83702.2	405.33
217.7000	387669	405.517
217.6000	297192	405.691
217.5000	39823.6	405.866
217.4000	-161450	406.036
217.3000	-343051	406.205
217.2000	-361000	406.38
217.1000	-450671	406.551
217.0000	-637477	406.72
216.9000	-963281	406.892
216.8000	-1.14607E+006	407.066
216.7000	-1.00351E+006	407.24
216.6000	-918011	407.42
216.5000	-812284	407.599
216.4000	-584452	407.776
216.3000	-468475	407.948
216.2000	-693458	408.123
216.1000	-943360	408.294
216.0000	-828003	408.473
215.9000	-1.13464E+006	408.643
215.8000	-1.40597E+006	408.81
215.7000	-1.55265E+006	408.984
215.6000	-1.86919E+006	409.157
215.5000	-1.87841E+006	409.34
215.4000	-1.78882E+006	409.52
215.3000	-1.57361E+006	409.703
215.2000	-1.57367E+006	409.879
215.1000	-1.44321E+006	410.069
215.0000	-1.27142E+006	410.26
214.9000	-1.09615E+006	410.451
214.8000	-1.06422E+006	410.637
214.7000	-1.31762E+006	410.815
214.6000	-1.37877E+006	410.995
214.5000	-1.29486E+006	411.181
214.4000	-1.16479E+006	411.368
214.3000	-972743	411.553
214.2000	-796019	411.735
214.1000	-944953	411.907
214.0000	-1.06654E+006	412.083
213.9000	-938906	412.268
213.8000	-883473	412.452
213.7000	-729113	412.64
213.6000	-693970	412.825
213.5000	-633586	413.012
213.4000	-750146	413.196
213.3000	-536221	413.392
213.2000	-487658	413.588
213.1000	-578231	413.779
213.0000	-565564	413.976
212.9000	-668454	414.172
212.8000	-715573	414.363
212.7000	-953217	414.553
212.6000	-1.27974E+006	414.743
212.5000	-1.41842E+006	414.934
212.4000	-1.21676E+006	415.134
212.3000	-1.09226E+006	415.332
212.2000	-1.17162E+006	415.526
212.1000	-1.40961E+006	415.717
212.0000	-1.53004E+006	415.918
211.9000	-1.52242E+006	416.124
211.8000	-1.5467E+006	416.327
211.7000	-1.32562E+006	416.539
211.6000	-1.38713E+006	416.748
211.5000	-1.18758E+006	416.961
211.4000	-1.10351E+006	417.173
211.3000	-1.03398E+006	417.389
211.2000	-1.0276E+006	417.598
211.1000	-996733	417.81
211.0000	-587706	418.035
210.9000	-383997	418.253
210.8000	-497677	418.464
210.7000	-641543	418.682
210.6000	-883315	418.895
210.5000	-827157	419.118
210.4000	-679113	419.344
210.3000	-648739	419.575
210.2000	-553034	419.798
210.1000	-411980	420.03
210.0000	-418209	420.26
209.9000	-635967	420.484
209.8000	-555042	420.71
209.7000	-425488	420.943
209.6000	-482268	421.169
209.5000	-422436	421.402
209.4000	-429535	421.635
209.3000	-671215	421.86
209.2000	-825069	422.088
209.1000	-628134	422.321
209.0000	-555170	422.554
208.9000	-674546	422.786
208.8000	-924308	423.014
208.7000	-1.06805E+006	423.242
208.6000	-1.09549E+006	423.478
208.5000	-1.2006E+006	423.715
208.4000	-1.30105E+006	423.954
208.3000	-1.3932E+006	424.198
208.2000	-1.26192E+006	424.45
208.1000	-1.13154E+006	424.701
208.0000	-755619	424.955
207.9000	-492845	425.208
207.8000	-611514	425.458
207.7000	-642389	425.706
207.6000	-512834	425.958
207.5000	-158970	426.212
207.4000	-155601	426.456
207.3000	-25353.6	426.703
207.2000	-13034.5	426.948
207.1000	-142027	427.19
207.0000	4788.21	427.438
206.9000	352658	427.688
206.8000	457085	427.932
206.7000	383439	428.172
206.6000	398173	428.417
206.5000	304241	428.663
206.4000	148675	428.912
206.3000	106976	429.163
206.2000	282320	429.41
206.1000	246064	429.649
206.0000	475560	429.895
205.9000	571714	430.14
205.8000	656526	430.382
205.7000	691674	430.624
205.6000	828630	430.866
205.5000	864173	431.111
205.4000	524594	431.348
205.3000	304244	431.595
205.2000	-76730.6	431.843
205.1000	-294229	432.095
205.0000	-262004	432.351
204.9000	-195838	432.612
204.8000	-429491	432.867
204.7000	-798655	433.122
204.6000	-864725	433.384
204.5000	-890550	433.651
204.4000	-902012	433.914
204.3000	-1.02788E+006	434.178
204.2000	-1.35971E+006	434.443
204.1000	-1.7079E+006	434.705
204.0000	-1.72466E+006	434.976
203.9000	-1.26369E+006	435.252
203.8000	-728117	435.533
203.7000	-158314	435.815
203.6000	334935	436.098
203.5000	711222	436.379
203.4000	1.33872E+006	436.664
203.3000	1.83864E+006	436.951
203.2000	2.16749E+006	437.238
203.1000	1.86266E+006	437.519
203.0000	1.68862E+006	437.803
202.9000	1.17609E+006	438.08
202.8000	771105	438.357
202.7000	510584	438.642
202.6000	297663	438.928
202.5000	-68444.3	439.21
202.4000	-570802	439.488
202.3000	-472497	439.779
202.2000	-387912	440.07
202.1000	-412811	440.361
202.0000	-427825	440.66
201.9000	-433050	440.965
201.8000	-588864	441.268
201.7000	-654779	441.578
201.6000	-434664	441.898
201.5000	-458418	442.217
201.4000	-535208	442.54
201.3000	-286458	442.873
201.2000	142925	443.212
201.1000	368971	443.549
201.0000	537207	443.887
200.9000	738958	444.231
200.8000	547838	444.573
200.7000	294149	444.918
200.6000	471165	445.273
200.5000	418995	445.632
200.4000	369982	445.997
200.3000	147928	446.366
200.2000	-234457	446.732
200.1000	-561485	447.096
200.0000	-195399	447.472
199.9000	200721	447.845
199.8000	94393.1	448.205
199.7000	-366831	448.543
199.6000	-623516	448.878
199.5000	-589127	449.215
199.4000	-639847	449.546
199.3000	-541141	449.88
199.2000	-788388	450.212
199.1000	-910139	450.55
199.0000	-773700	450.898
198.9000	-689147	451.259
198.8000	-550687	451.633
198.7000	-482483	452.018
198.6000	-359898	452.417
198.5000	-289514	452.829
198.4000	-349723	453.242
198.3000	-559634	453.659
198.2000	-925404	454.091
198.1000	-1.52151E+006	454.534
198.0000	-1.47451E+006	455.015
197.9000	-1.76374E+006	455.501
197.8000	-2.07951E+006	455.995
197.7000	-1.99275E+006	456.506
197.6000	-1.87678E+006	457.021
197.5000	-1.66341E+006	457.537
197.4000	-1.58541E+006	458.031
197.3000	-950178	458.506
197.2000	-442166	458.934
197.1000	-173376	459.31
197.0000	11676.1	459.66
196.9000	-86110.5	459.983
196.8000	-198183	460.296
196.7000	-64612.1	460.615
196.6000	-154681	460.942
196.5000	-501861	461.289
196.4000	-847201	461.684
196.3000	-1.13196E+006	462.124
196.2000	-1.26833E+006	462.617
196.1000	-1.38049E+006	463.154
196.0000	-1.61572E+006	463.74
195.9000	-1.67024E+006	464.398
195.8000	-1.63317E+006	465.14
195.7000	-1.49153E+006	465.984
195.6000	-1.1175E+006	466.93
195.5000	-1.02292E+006	467.967
195.4000	-543566	469.077
195.3000	-194053	470.213
195.2000	-219816	471.342
195.1000	-469528	472.424
195.0000	-722013	473.399
194.9000	-637055	474.215
194.8000	-404403	474.832
194.7000	-31426.7	475.255
194.6000	-457223	475.506
194.5000	-775743	475.642
194.4000	-701938	475.714
194.3000	-294767	475.758
194.2000	-199330	475.827
194.1000	-336822	475.992
194.0000	-707051	476.304
193.9000	-1.12122E+006	476.802
193.8000	-1.52709E+006	477.501
193.7000	-1.43952E+006	478.446
193.6000	-1.38171E+006	479.646
193.5000	-1.27357E+006	481.143
193.4000	-1.37591E+006	482.967
193.3000	-1.09701E+006	485.121
193.2000	-666218	487.544
193.1000	-863785	490.138
193.0000	-454687	492.827
192.9000	-116214	495.466
192.8000	-108481	497.9
192.7000	-342186	499.957
192.6000	-241885	501.467
192.5000	-548080	502.349
192.4000	-963698	502.646
192.3000	-723303	502.466
192.2000	-1.16729E+006	501.903
192.1000	-1.49329E+006	501.101
192.0000	-1.47174E+006	500.221
191.9000	-1.23223E+006	499.439
191.8000	-1.33021E+006	498.962
191.7000	-1.02433E+006	498.946
191.6000	-582073	499.439
191.5000	-514525	500.445
191.4000	-551690	501.959
191.3000	-1.17589E+006	504.012
191.2000	-2.04357E+006	506.625
191.1000	-2.90734E+006	509.777
191.0000	-2.93171E+006	513.38
190.9000	-2.87084E+006	517.251
190.8000	-2.833E+006	521.221
190.7000	-2.48436E+006	525.104
190.6000	-1.86409E+006	528.706
190.5000	-777654	531.787
190.4000	493202	534.1
190.3000	1.37464E+006	535.522
190.2000	1.9522E+006	536.091
190.1000	1.53536E+006	535.949
190.0000	333333	535.301

##### Extended Information
[Comments]
Sample name	Erg_0.6uM
Comment
User
Division
Company	CSIR-IMTECH

[Detailed Information]
Creation date	4/9/2024 1:17 PM

Data array type	Linear data array * 2
Horizontal axis	Wavelength [nm]
Vertical axis(1)	Mol. Ellip.
Vertical axis(2)	HT [V]
Start	350 nm
End	190 nm
Data interval	0.1 nm
Data points	1601    

[Measurement Information]
Instrument Name	JASCO CD
Model Name	J-815
Serial No.	B063061168

Accessory	PTC-423S
Accessory S/N	C013945-01
  Temperature	37.02 C
  Control Sonsor	Cell
  Monitor Sensor	Cell
  Start Mode	Start immediately
  Cell Length	10 mm

Measurement date	4/9/2024 1:15 PM

Photometric Mode	CD, HT
Measure Range	350 - 190 nm
Data pitch	0.1 nm
Sensitivity	Standard
D.I.T.	1 sec
Bandwidth	1.00 nm
Start Mode	Immediately
Scanning Speed	50 nm/min
Baseline Correction	None
Shutter Control	Auto
CD Detector	PMT
PMT Voltage	Auto
Accumulations	3
Concentration	0.6 umol/L

