TITLE	Erg_0.6uM
DATA TYPE	
ORIGIN	JASCO
OWNER	
DATE	24/04/09
TIME	13:16:05
SPECTROMETER/DATA SYSTEM	
LOCALE	1033
RESOLUTION	
DELTAX	-0.1
XUNITS	NANOMETERS
YUNITS	CD [mdeg]
Y2UNITS	HT [V]
FIRSTX	  350.0000
LASTX	  190.0000
NPOINTS	    1601
FIRSTY	    -1.25272
MAXY	     1.30050
MINY	    -1.75903
XYDATA
350.0000	-1.25272	487.811
349.9000	-1.02649	487.177
349.8000	-0.637933	486.249
349.7000	-0.624138	485.292
349.6000	-0.694222	484.6
349.5000	-0.79595	483.994
349.4000	-0.884572	483.059
349.3000	-0.816157	482.391
349.2000	-1.10514	481.815
349.1000	-1.28176	480.934
349.0000	-1.44284	480.271
348.9000	-1.38024	479.696
348.8000	-0.977728	478.815
348.7000	-0.538694	477.925
348.6000	-0.0320676	477.293
348.5000	0.238917	476.744
348.4000	0.477571	475.869
348.3000	0.607322	475.217
348.2000	0.676418	474.635
348.1000	0.638094	473.738
348.0000	0.318094	473.051
347.9000	-0.126708	472.446
347.8000	-0.582203	471.549
347.7000	-0.813744	470.645
347.6000	-0.692001	469.996
347.5000	-0.551375	469.443
347.4000	-0.498524	468.577
347.3000	-0.499226	467.924
347.2000	-0.482569	467.372
347.1000	-0.316848	466.577
347.0000	-0.297095	465.988
346.9000	-0.132988	465.489
346.8000	-0.149754	464.689
346.7000	-0.175396	463.871
346.6000	-0.105038	463.278
346.5000	-0.166865	462.518
346.4000	0.0517192	461.749
346.3000	0.376011	461.154
346.2000	0.491222	460.345
346.1000	0.409673	459.509
346.0000	0.345237	458.89
345.9000	0.21962	458.358
345.8000	0.128261	457.551
345.7000	0.141494	456.944
345.6000	0.0383159	456.42
345.5000	-0.253403	455.642
345.4000	-0.326642	455.077
345.3000	-0.378023	454.608
345.2000	-0.422886	453.887
345.1000	-0.266002	453.166
345.0000	-0.357579	452.631
344.9000	-0.457048	451.953
344.8000	-0.398409	451.261
344.7000	-0.464251	450.741
344.6000	-0.516163	450.058
344.5000	-0.411211	449.363
344.4000	-0.489683	448.828
344.3000	-0.666452	448.117
344.2000	-0.867113	447.387
344.1000	-0.756555	446.831
344.0000	-1.01341	446.109
343.9000	-1.02873	445.39
343.8000	-0.903565	444.867
343.7000	-0.873	444.417
343.6000	-0.752737	443.739
343.5000	-0.632228	443.255
343.4000	-0.529343	442.854
343.3000	-0.525891	442.217
343.2000	-0.414935	441.755
343.1000	-0.50777	441.351
343.0000	-0.757996	440.732
342.9000	-0.888839	440.101
342.8000	-0.894262	439.635
342.7000	-0.875724	438.997
342.6000	-0.886453	438.338
342.5000	-0.749383	437.844
342.4000	-0.655248	437.227
342.3000	-0.444613	436.605
342.2000	-0.236066	436.128
342.1000	-0.277699	435.508
342.0000	-0.421733	434.886
341.9000	-0.459199	434.445
341.8000	-0.331604	433.882
341.7000	-0.41912	433.307
341.6000	-0.695891	432.874
341.5000	-0.72582	432.33
341.4000	-0.733425	431.781
341.3000	-0.591168	431.378
341.2000	-0.364206	430.823
341.1000	-0.269884	430.247
341.0000	-0.407243	429.807
340.9000	-0.585545	429.235
340.8000	-0.520891	428.655
340.7000	-0.506298	428.198
340.6000	-0.692253	427.614
340.5000	-0.774358	427.029
340.4000	-0.866838	426.594
340.3000	-0.907161	426.025
340.2000	-0.843811	425.454
340.1000	-0.662921	425.038
340.0000	-0.444872	424.528
339.9000	-0.370882	424.016
339.8000	-0.234385	423.644
339.7000	-0.223911	423.165
339.6000	-0.168305	422.686
339.5000	-0.223814	422.356
339.4000	-0.337628	421.893
339.3000	-0.454336	421.403
339.2000	-0.514455	420.868
339.1000	-0.535887	420.381
339.0000	-0.462069	419.877
338.9000	-0.443176	419.302
338.8000	-0.489247	418.769
338.7000	-0.545307	418.224
338.6000	-0.435041	417.644
338.5000	-0.355809	417.138
338.4000	-0.308021	416.757
338.3000	-0.295983	416.297
338.2000	-0.360862	415.835
338.1000	-0.441485	415.509
338.0000	-0.359151	415.079
337.9000	-0.348584	414.643
337.8000	-0.367729	414.341
337.7000	-0.373172	413.95
337.6000	-0.385478	413.545
337.5000	-0.382263	413.232
337.4000	-0.468785	412.804
337.3000	-0.485292	412.357
337.2000	-0.489879	411.865
337.1000	-0.595782	411.421
337.0000	-0.665452	410.968
336.9000	-0.735504	410.48
336.8000	-0.828012	410.045
336.7000	-0.836754	409.611
336.6000	-0.694098	409.148
336.5000	-0.614778	408.736
336.4000	-0.554142	408.449
336.3000	-0.473302	408.055
336.2000	-0.382328	407.65
336.1000	-0.380299	407.35
336.0000	-0.29048	406.971
335.9000	-0.232814	406.567
335.8000	-0.280733	406.113
335.7000	-0.281322	405.701
335.6000	-0.325239	405.277
335.5000	-0.433268	404.832
335.4000	-0.488615	404.445
335.3000	-0.454043	404.061
335.2000	-0.42088	403.651
335.1000	-0.409561	403.293
335.0000	-0.387587	403.058
334.9000	-0.416634	402.718
334.8000	-0.40952	402.369
334.7000	-0.380569	401.997
334.6000	-0.259063	401.677
334.5000	-0.143264	401.347
334.4000	-0.0878925	400.948
334.3000	-0.151143	400.571
334.2000	-0.232151	400.18
334.1000	-0.243465	399.766
334.0000	-0.26655	399.404
333.9000	-0.173415	399.135
333.8000	-0.129393	398.775
333.7000	-0.170483	398.404
333.6000	-0.191619	398.007
333.5000	-0.178224	397.668
333.4000	-0.0840561	397.334
333.3000	-0.0792322	396.975
333.2000	-0.0911065	396.664
333.1000	-0.174037	396.348
333.0000	-0.260295	396.015
332.9000	-0.36268	395.718
332.8000	-0.435853	395.368
332.7000	-0.528264	395.052
332.6000	-0.609014	394.723
332.5000	-0.65012	394.369
332.4000	-0.623141	394.054
332.3000	-0.553474	393.735
332.2000	-0.40321	393.362
332.1000	-0.142245	393.023
332.0000	0.0469271	392.668
331.9000	0.0657769	392.367
331.8000	0.0127253	392.066
331.7000	-0.0525354	391.732
331.6000	-0.224971	391.424
331.5000	-0.333462	390.993
331.4000	-0.435787	390.655
331.3000	-0.553219	390.362
331.2000	-0.680121	390.037
331.1000	-0.826539	389.742
331.0000	-0.88213	389.44
330.9000	-0.848259	389.127
330.8000	-0.760564	388.85
330.7000	-0.692969	388.537
330.6000	-0.651504	388.264
330.5000	-0.724716	387.986
330.4000	-0.761787	387.68
330.3000	-0.693886	387.42
330.2000	-0.563459	387.06
330.1000	-0.516373	386.764
330.0000	-0.46014	386.502
329.9000	-0.33949	386.21
329.8000	-0.231038	385.952
329.7000	-0.113133	385.612
329.6000	-0.163853	385.341
329.5000	-0.259382	385.1
329.4000	-0.239671	384.794
329.3000	-0.198191	384.516
329.2000	-0.111229	384.138
329.1000	-0.106344	383.84
329.0000	-0.212448	383.582
328.9000	-0.371268	383.281
328.8000	-0.365656	383.012
328.7000	-0.267614	382.663
328.6000	-0.205337	382.416
328.5000	-0.222326	382.218
328.4000	-0.29522	381.955
328.3000	-0.442734	381.717
328.2000	-0.498071	381.425
328.1000	-0.556782	381.202
328.0000	-0.60775	381.011
327.9000	-0.608766	380.73
327.8000	-0.648637	380.465
327.7000	-0.721781	380.184
327.6000	-0.805242	380.001
327.5000	-0.87723	379.866
327.4000	-0.967241	379.574
327.3000	-0.86482	379.297
327.2000	-0.806882	378.999
327.1000	-0.843596	378.806
327.0000	-0.908559	378.665
326.9000	-0.981244	378.385
326.8000	-0.901105	378.093
326.7000	-0.732983	377.775
326.6000	-0.598938	377.592
326.5000	-0.62641	377.471
326.4000	-0.673472	377.182
326.3000	-0.748618	376.882
326.2000	-0.791571	376.586
326.1000	-0.693486	376.407
326.0000	-0.60988	376.098
325.9000	-0.692471	375.8
325.8000	-0.750231	375.507
325.7000	-0.852292	375.237
325.6000	-0.846999	375.103
325.5000	-0.733294	374.824
325.4000	-0.537193	374.537
325.3000	-0.497851	374.23
325.2000	-0.507165	374.069
325.1000	-0.546825	373.972
325.0000	-0.498534	373.689
324.9000	-0.353811	373.385
324.8000	-0.178814	373.082
324.7000	-0.137194	372.93
324.6000	-0.211383	372.856
324.5000	-0.297336	372.578
324.4000	-0.362416	372.285
324.3000	-0.402228	372.017
324.2000	-0.48381	371.882
324.1000	-0.537567	371.626
324.0000	-0.652997	371.348
323.9000	-0.692551	371.055
323.8000	-0.707627	370.791
323.7000	-0.649526	370.669
323.6000	-0.653932	370.4
323.5000	-0.677744	370.094
323.4000	-0.591511	369.805
323.3000	-0.496309	369.657
323.2000	-0.456003	369.574
323.1000	-0.511444	369.311
323.0000	-0.519361	369.024
322.9000	-0.521639	368.738
322.8000	-0.47021	368.606
322.7000	-0.248364	368.365
322.6000	-0.0761657	368.086
322.5000	-0.0302508	367.806
322.4000	0.027219	367.527
322.3000	0.118481	367.363
322.2000	0.10765	367.058
322.1000	0.072011	366.723
322.0000	0.0204883	366.397
321.9000	-0.0856761	366.206
321.8000	-0.29472	365.909
321.7000	-0.476195	365.59
321.6000	-0.59378	365.259
321.5000	-0.759744	364.959
321.4000	-0.94136	364.809
321.3000	-0.942881	364.601
321.2000	-0.860795	364.388
321.1000	-0.773737	364.178
321.0000	-0.641573	364.11
320.9000	-0.525635	363.957
320.8000	-0.434584	363.804
320.7000	-0.385237	363.664
320.6000	-0.247782	363.521
320.5000	-0.211191	363.48
320.4000	-0.270631	363.304
320.3000	-0.438034	363.106
320.2000	-0.563545	362.923
320.1000	-0.70388	362.854
320.0000	-0.790917	362.693
319.9000	-0.71802	362.512
319.8000	-0.639669	362.321
319.7000	-0.579186	362.121
319.6000	-0.532169	361.922
319.5000	-0.531149	361.783
319.4000	-0.599634	361.619
319.3000	-0.608673	361.413
319.2000	-0.588354	361.309
319.1000	-0.623992	361.097
319.0000	-0.630956	360.869
318.9000	-0.649701	360.644
318.8000	-0.696489	360.507
318.7000	-0.68534	360.254
318.6000	-0.539008	359.996
318.5000	-0.407168	359.778
318.4000	-0.313597	359.562
318.3000	-0.221563	359.357
318.2000	-0.195765	359.21
318.1000	-0.202924	359.058
318.0000	-0.273534	358.878
317.9000	-0.325386	358.81
317.8000	-0.341995	358.705
317.7000	-0.386535	358.574
317.6000	-0.47182	358.395
317.5000	-0.494288	358.286
317.4000	-0.558303	358.094
317.3000	-0.593737	357.892
317.2000	-0.540824	357.688
317.1000	-0.451909	357.487
317.0000	-0.460858	357.225
316.9000	-0.479517	356.996
316.8000	-0.43057	356.8
316.7000	-0.509015	356.602
316.6000	-0.574395	356.424
316.5000	-0.593506	356.289
316.4000	-0.630227	356.122
316.3000	-0.622537	355.953
316.2000	-0.657454	355.788
316.1000	-0.645848	355.668
316.0000	-0.697621	355.545
315.9000	-0.76646	355.38
315.8000	-0.837469	355.26
315.7000	-0.876485	355.073
315.6000	-0.905736	354.916
315.5000	-0.978644	354.734
315.4000	-0.966111	354.618
315.3000	-0.964156	354.412
315.2000	-0.926839	354.202
315.1000	-0.903062	354.011
315.0000	-0.793783	353.83
314.9000	-0.7318	353.648
314.8000	-0.676373	353.49
314.7000	-0.627666	353.329
314.6000	-0.620475	353.171
314.5000	-0.612615	353.024
314.4000	-0.595178	352.916
314.3000	-0.528812	352.778
314.2000	-0.471678	352.644
314.1000	-0.476982	352.457
314.0000	-0.542993	352.29
313.9000	-0.56463	352.118
313.8000	-0.571847	351.955
313.7000	-0.557159	351.734
313.6000	-0.545057	351.533
313.5000	-0.592403	351.345
313.4000	-0.674917	351.161
313.3000	-0.724602	350.989
313.2000	-0.739591	350.845
313.1000	-0.750637	350.694
313.0000	-0.760453	350.544
312.9000	-0.764689	350.4
312.8000	-0.849851	350.295
312.7000	-0.949072	350.157
312.6000	-0.917584	350.026
312.5000	-0.910235	349.86
312.4000	-0.889016	349.707
312.3000	-0.851791	349.538
312.2000	-0.84933	349.366
312.1000	-0.957213	349.145
312.0000	-0.973571	348.94
311.9000	-0.915295	348.74
311.8000	-0.889856	348.505
311.7000	-0.940777	348.311
311.6000	-0.948766	348.112
311.5000	-1.04127	347.943
311.4000	-1.09379	347.735
311.3000	-0.998306	347.599
311.2000	-0.885372	347.463
311.1000	-0.811509	347.352
311.0000	-0.837147	347.229
310.9000	-0.765463	347.131
310.8000	-0.663405	347.021
310.7000	-0.547804	346.929
310.6000	-0.43089	346.799
310.5000	-0.475895	346.684
310.4000	-0.548109	346.571
310.3000	-0.555334	346.472
310.2000	-0.526151	346.385
310.1000	-0.511627	346.311
310.0000	-0.535335	346.231
309.9000	-0.547455	346.162
309.8000	-0.546955	346.099
309.7000	-0.495672	346.012
309.6000	-0.413397	345.944
309.5000	-0.40256	345.835
309.4000	-0.418599	345.739
309.3000	-0.447554	345.597
309.2000	-0.47606	345.479
309.1000	-0.521785	345.304
309.0000	-0.52445	345.162
308.9000	-0.512932	345.031
308.8000	-0.528681	344.91
308.7000	-0.572519	344.799
308.6000	-0.628312	344.704
308.5000	-0.662947	344.601
308.4000	-0.695633	344.484
308.3000	-0.689535	344.411
308.2000	-0.724553	344.299
308.1000	-0.774824	344.214
308.0000	-0.839223	344.108
307.9000	-0.829779	344.02
307.8000	-0.760997	343.885
307.7000	-0.734608	343.777
307.6000	-0.683486	343.653
307.5000	-0.619922	343.488
307.4000	-0.610604	343.363
307.3000	-0.65586	343.239
307.2000	-0.645692	343.143
307.1000	-0.685587	343.006
307.0000	-0.776144	342.907
306.9000	-0.820517	342.808
306.8000	-0.816637	342.745
306.7000	-0.822639	342.676
306.6000	-0.820899	342.588
306.5000	-0.776521	342.51
306.4000	-0.715617	342.379
306.3000	-0.629146	342.284
306.2000	-0.592474	342.157
306.1000	-0.542534	342.04
306.0000	-0.516884	341.888
305.9000	-0.53301	341.774
305.8000	-0.565895	341.694
305.7000	-0.636237	341.569
305.6000	-0.642811	341.488
305.5000	-0.678566	341.413
305.4000	-0.635272	341.374
305.3000	-0.626888	341.284
305.2000	-0.72781	341.217
305.1000	-0.815882	341.138
305.0000	-0.844415	341.006
304.9000	-0.832488	340.914
304.8000	-0.832918	340.806
304.7000	-0.84785	340.705
304.6000	-0.916346	340.563
304.5000	-0.968586	340.456
304.4000	-0.838376	340.38
304.3000	-0.730339	340.272
304.2000	-0.708685	340.211
304.1000	-0.611001	340.166
304.0000	-0.629725	340.136
303.9000	-0.619199	340.054
303.8000	-0.64899	339.976
303.7000	-0.670805	339.922
303.6000	-0.775907	339.809
303.5000	-0.839788	339.732
303.4000	-0.838103	339.639
303.3000	-0.883244	339.515
303.2000	-0.870288	339.397
303.1000	-0.857429	339.312
303.0000	-0.814522	339.267
302.9000	-0.790533	339.176
302.8000	-0.800983	339.107
302.7000	-0.823478	339.057
302.6000	-0.800957	338.973
302.5000	-0.778882	338.922
302.4000	-0.80959	338.864
302.3000	-0.827919	338.762
302.2000	-0.807777	338.662
302.1000	-0.781951	338.564
302.0000	-0.771156	338.496
301.9000	-0.735697	338.398
301.8000	-0.758865	338.321
301.7000	-0.859608	338.262
301.6000	-0.954762	338.172
301.5000	-0.982622	338.124
301.4000	-1.04076	338.075
301.3000	-1.07216	337.996
301.2000	-1.01672	337.929
301.1000	-0.948722	337.867
301.0000	-0.895897	337.831
300.9000	-0.867474	337.75
300.8000	-0.774645	337.671
300.7000	-0.769461	337.605
300.6000	-0.735584	337.523
300.5000	-0.722584	337.46
300.4000	-0.76214	337.411
300.3000	-0.839816	337.337
300.2000	-0.833566	337.266
300.1000	-0.832553	337.212
300.0000	-0.81617	337.148
299.9000	-0.724016	337.097
299.8000	-0.687058	337.044
299.7000	-0.692976	336.97
299.6000	-0.666437	336.904
299.5000	-0.673585	336.834
299.4000	-0.701044	336.776
299.3000	-0.761533	336.7
299.2000	-0.764805	336.645
299.1000	-0.937561	336.599
299.0000	-1.08722	336.526
298.9000	-1.19504	336.474
298.8000	-1.22196	336.438
298.7000	-1.17318	336.386
298.6000	-1.13014	336.34
298.5000	-1.10438	336.29
298.4000	-1.16197	336.223
298.3000	-1.07709	336.169
298.2000	-0.898459	336.117
298.1000	-0.80243	336.055
298.0000	-0.75175	335.999
297.9000	-0.809175	335.943
297.8000	-0.812348	335.873
297.7000	-0.867274	335.819
297.6000	-0.872371	335.778
297.5000	-0.912135	335.712
297.4000	-0.995916	335.662
297.3000	-1.05824	335.62
297.2000	-1.05832	335.556
297.1000	-1.04897	335.506
297.0000	-1.06136	335.455
296.9000	-1.06591	335.383
296.8000	-1.04186	335.327
296.7000	-1.05995	335.278
296.6000	-1.04752	335.24
296.5000	-1.03394	335.191
296.4000	-1.02315	335.15
296.3000	-1.01446	335.119
296.2000	-1.00233	335.075
296.1000	-0.987136	335.039
296.0000	-0.988387	335.011
295.9000	-1.01771	334.966
295.8000	-0.989499	334.903
295.7000	-0.968857	334.859
295.6000	-0.93938	334.813
295.5000	-0.958987	334.748
295.4000	-0.976148	334.674
295.3000	-0.98204	334.628
295.2000	-0.96329	334.571
295.1000	-0.9159	334.502
295.0000	-0.878149	334.462
294.9000	-0.957575	334.41
294.8000	-1.02619	334.339
294.7000	-1.0335	334.3
294.6000	-1.01182	334.268
294.5000	-1.01791	334.216
294.4000	-1.0144	334.176
294.3000	-0.988783	334.146
294.2000	-0.9496	334.099
294.1000	-0.917598	334.064
294.0000	-0.894414	334.04
293.9000	-0.940822	333.989
293.8000	-0.955393	333.954
293.7000	-0.93991	333.928
293.6000	-0.971438	333.876
293.5000	-1.0169	333.813
293.4000	-1.10122	333.776
293.3000	-1.13685	333.732
293.2000	-1.15193	333.677
293.1000	-1.14503	333.651
293.0000	-1.07542	333.607
292.9000	-1.05186	333.552
292.8000	-1.06645	333.527
292.7000	-1.04337	333.499
292.6000	-0.979028	333.461
292.5000	-0.898854	333.405
292.4000	-0.876915	333.369
292.3000	-0.826279	333.32
292.2000	-0.857745	333.266
292.1000	-0.905294	333.238
292.0000	-0.970241	333.192
291.9000	-0.975808	333.137
291.8000	-1.01725	333.085
291.7000	-1.08059	333.058
291.6000	-1.12383	333.012
291.5000	-1.13835	332.959
291.4000	-1.1264	332.932
291.3000	-1.13786	332.879
291.2000	-1.11229	332.813
291.1000	-1.09724	332.747
291.0000	-1.01087	332.7
290.9000	-0.972033	332.631
290.8000	-0.965347	332.541
290.7000	-0.941785	332.448
290.6000	-0.882289	332.346
290.5000	-0.833543	332.219
290.4000	-0.829925	332.084
290.3000	-0.768838	331.967
290.2000	-0.82045	331.821
290.1000	-0.886523	331.664
290.0000	-0.869235	331.523
289.9000	-0.878709	331.418
289.8000	-0.906618	331.318
289.7000	-0.90674	331.24
289.6000	-0.835917	331.203
289.5000	-0.845262	331.204
289.4000	-0.851873	331.227
289.3000	-0.791723	331.288
289.2000	-0.724622	331.369
289.1000	-0.685551	331.471
289.0000	-0.661974	331.571
288.9000	-0.664318	331.674
288.8000	-0.7397	331.769
288.7000	-0.776743	331.856
288.6000	-0.718763	331.924
288.5000	-0.70508	331.977
288.4000	-0.735375	332.013
288.3000	-0.7708	332.041
288.2000	-0.788456	332.043
288.1000	-0.842476	332.035
288.0000	-0.819948	332.013
287.9000	-0.776198	331.98
287.8000	-0.762654	331.958
287.7000	-0.786618	331.929
287.6000	-0.73372	331.904
287.5000	-0.702863	331.864
287.4000	-0.732549	331.843
287.3000	-0.708411	331.824
287.2000	-0.716981	331.805
287.1000	-0.767216	331.787
287.0000	-0.77555	331.745
286.9000	-0.75884	331.725
286.8000	-0.793805	331.708
286.7000	-0.873492	331.689
286.6000	-0.823141	331.662
286.5000	-0.830217	331.648
286.4000	-0.811762	331.643
286.3000	-0.782274	331.642
286.2000	-0.795727	331.641
286.1000	-0.853848	331.628
286.0000	-0.896705	331.627
285.9000	-0.900095	331.62
285.8000	-0.9468	331.617
285.7000	-0.998222	331.596
285.6000	-1.03752	331.568
285.5000	-1.05027	331.562
285.4000	-1.06309	331.56
285.3000	-0.965738	331.566
285.2000	-0.892198	331.548
285.1000	-0.843968	331.534
285.0000	-0.854824	331.539
284.9000	-0.883945	331.532
284.8000	-0.932666	331.53
284.7000	-0.982194	331.508
284.6000	-0.977222	331.486
284.5000	-1.04872	331.481
284.4000	-1.15212	331.473
284.3000	-1.192	331.476
284.2000	-1.19789	331.456
284.1000	-1.1388	331.447
284.0000	-1.11565	331.428
283.9000	-1.13718	331.428
283.8000	-1.14422	331.438
283.7000	-1.12648	331.427
283.6000	-1.1088	331.414
283.5000	-1.0401	331.404
283.4000	-1.02314	331.396
283.3000	-1.0258	331.405
283.2000	-1.00589	331.417
283.1000	-0.901621	331.429
283.0000	-0.7769	331.421
282.9000	-0.806537	331.414
282.8000	-0.868999	331.408
282.7000	-0.900771	331.423
282.6000	-0.905959	331.442
282.5000	-0.864807	331.449
282.4000	-0.779913	331.454
282.3000	-0.762807	331.452
282.2000	-0.837917	331.449
282.1000	-0.887994	331.468
282.0000	-0.872821	331.482
281.9000	-0.836448	331.483
281.8000	-0.834915	331.478
281.7000	-0.843489	331.471
281.6000	-0.873711	331.464
281.5000	-0.903291	331.459
281.4000	-0.908665	331.474
281.3000	-0.892136	331.48
281.2000	-0.854219	331.48
281.1000	-0.790734	331.478
281.0000	-0.848884	331.471
280.9000	-0.915198	331.463
280.8000	-0.925981	331.453
280.7000	-0.953766	331.45
280.6000	-0.970737	331.453
280.5000	-0.961609	331.446
280.4000	-0.98862	331.439
280.3000	-1.00922	331.432
280.2000	-0.980827	331.426
280.1000	-0.937781	331.419
280.0000	-0.942634	331.416
279.9000	-0.913973	331.407
279.8000	-0.84166	331.389
279.7000	-0.743658	331.385
279.6000	-0.69862	331.381
279.5000	-0.653548	331.378
279.4000	-0.620875	331.374
279.3000	-0.610428	331.369
279.2000	-0.616684	331.365
279.1000	-0.618627	331.365
279.0000	-0.68651	331.367
278.9000	-0.740215	331.357
278.8000	-0.739144	331.362
278.7000	-0.76817	331.372
278.6000	-0.855489	331.385
278.5000	-0.86172	331.408
278.4000	-0.881731	331.425
278.3000	-0.887414	331.444
278.2000	-0.87774	331.46
278.1000	-0.894566	331.471
278.0000	-0.927747	331.474
277.9000	-0.932237	331.47
277.8000	-0.947824	331.463
277.7000	-0.977624	331.455
277.6000	-0.988405	331.468
277.5000	-0.955676	331.481
277.4000	-0.933461	331.497
277.3000	-0.926028	331.516
277.2000	-0.897433	331.532
277.1000	-0.856079	331.547
277.0000	-0.82557	331.563
276.9000	-0.749067	331.58
276.8000	-0.7144	331.582
276.7000	-0.709447	331.576
276.6000	-0.711584	331.574
276.5000	-0.690697	331.576
276.4000	-0.65596	331.578
276.3000	-0.698706	331.584
276.2000	-0.693549	331.59
276.1000	-0.733093	331.594
276.0000	-0.77795	331.615
275.9000	-0.833264	331.639
275.8000	-0.835796	331.664
275.7000	-0.822715	331.686
275.6000	-0.777808	331.712
275.5000	-0.748591	331.729
275.4000	-0.745416	331.75
275.3000	-0.730048	331.776
275.2000	-0.685129	331.792
275.1000	-0.614872	331.804
275.0000	-0.549821	331.811
274.9000	-0.528152	331.82
274.8000	-0.59719	331.826
274.7000	-0.673199	331.837
274.6000	-0.745776	331.844
274.5000	-0.7739	331.851
274.4000	-0.824977	331.859
274.3000	-0.896248	331.865
274.2000	-0.945306	331.87
274.1000	-0.997112	331.882
274.0000	-0.978322	331.899
273.9000	-0.975887	331.915
273.8000	-0.937526	331.929
273.7000	-0.872851	331.949
273.6000	-0.81253	331.966
273.5000	-0.768506	331.982
273.4000	-0.753991	332.002
273.3000	-0.785608	332.022
273.2000	-0.762796	332.034
273.1000	-0.726589	332.043
273.0000	-0.660297	332.057
272.9000	-0.632174	332.068
272.8000	-0.604452	332.082
272.7000	-0.619157	332.097
272.6000	-0.621267	332.115
272.5000	-0.595121	332.132
272.4000	-0.556923	332.154
272.3000	-0.527566	332.182
272.2000	-0.499254	332.211
272.1000	-0.523173	332.233
272.0000	-0.579519	332.25
271.9000	-0.546309	332.269
271.8000	-0.497791	332.281
271.7000	-0.499621	332.292
271.6000	-0.493769	332.301
271.5000	-0.5516	332.308
271.4000	-0.55648	332.313
271.3000	-0.55054	332.319
271.2000	-0.547993	332.329
271.1000	-0.57713	332.341
271.0000	-0.645832	332.349
270.9000	-0.583593	332.35
270.8000	-0.502522	332.348
270.7000	-0.495571	332.344
270.6000	-0.524818	332.335
270.5000	-0.553215	332.329
270.4000	-0.570905	332.325
270.3000	-0.555177	332.313
270.2000	-0.490609	332.307
270.1000	-0.584341	332.303
270.0000	-0.714137	332.303
269.9000	-0.775137	332.31
269.8000	-0.751462	332.321
269.7000	-0.750809	332.329
269.6000	-0.745353	332.341
269.5000	-0.733267	332.358
269.4000	-0.740557	332.367
269.3000	-0.70686	332.387
269.2000	-0.630156	332.412
269.1000	-0.595764	332.436
269.0000	-0.566672	332.455
268.9000	-0.588536	332.483
268.8000	-0.588693	332.514
268.7000	-0.538598	332.556
268.6000	-0.473999	332.611
268.5000	-0.46859	332.668
268.4000	-0.499311	332.715
268.3000	-0.558821	332.748
268.2000	-0.597091	332.789
268.1000	-0.607155	332.831
268.0000	-0.491756	332.892
267.9000	-0.475292	332.939
267.8000	-0.502099	332.984
267.7000	-0.505339	333.023
267.6000	-0.498304	333.069
267.5000	-0.454822	333.123
267.4000	-0.475932	333.166
267.3000	-0.513253	333.211
267.2000	-0.626797	333.243
267.1000	-0.715112	333.278
267.0000	-0.752883	333.308
266.9000	-0.74812	333.348
266.8000	-0.726479	333.386
266.7000	-0.705161	333.415
266.6000	-0.642752	333.462
266.5000	-0.592361	333.514
266.4000	-0.542789	333.567
266.3000	-0.550504	333.613
266.2000	-0.618136	333.666
266.1000	-0.64278	333.716
266.0000	-0.726685	333.755
265.9000	-0.800126	333.807
265.8000	-0.856059	333.865
265.7000	-0.868902	333.931
265.6000	-0.895502	333.995
265.5000	-0.886062	334.061
265.4000	-0.84452	334.113
265.3000	-0.828169	334.166
265.2000	-0.759754	334.237
265.1000	-0.628353	334.318
265.0000	-0.560863	334.395
264.9000	-0.538677	334.471
264.8000	-0.567452	334.523
264.7000	-0.539729	334.577
264.6000	-0.514423	334.643
264.5000	-0.450199	334.718
264.4000	-0.447563	334.786
264.3000	-0.495067	334.837
264.2000	-0.548754	334.889
264.1000	-0.509609	334.942
264.0000	-0.459908	335.002
263.9000	-0.456183	335.071
263.8000	-0.472777	335.129
263.7000	-0.551524	335.185
263.6000	-0.607847	335.252
263.5000	-0.565449	335.334
263.4000	-0.534157	335.419
263.3000	-0.569303	335.478
263.2000	-0.595228	335.547
263.1000	-0.592662	335.625
263.0000	-0.673846	335.709
262.9000	-0.69828	335.79
262.8000	-0.590219	335.877
262.7000	-0.544666	335.955
262.6000	-0.582341	336.03
262.5000	-0.580419	336.122
262.4000	-0.560391	336.205
262.3000	-0.533859	336.282
262.2000	-0.404228	336.357
262.1000	-0.33854	336.434
262.0000	-0.407051	336.493
261.9000	-0.433748	336.565
261.8000	-0.484714	336.636
261.7000	-0.516312	336.693
261.6000	-0.592733	336.761
261.5000	-0.643933	336.834
261.4000	-0.693069	336.905
261.3000	-0.733079	336.97
261.2000	-0.688177	337.052
261.1000	-0.693905	337.135
261.0000	-0.739222	337.227
260.9000	-0.657214	337.321
260.8000	-0.630965	337.412
260.7000	-0.641583	337.501
260.6000	-0.653647	337.585
260.5000	-0.59287	337.677
260.4000	-0.614058	337.77
260.3000	-0.687171	337.851
260.2000	-0.629944	337.923
260.1000	-0.653938	337.996
260.0000	-0.572889	338.075
259.9000	-0.480215	338.145
259.8000	-0.417806	338.229
259.7000	-0.422058	338.319
259.6000	-0.445998	338.396
259.5000	-0.433452	338.477
259.4000	-0.406975	338.566
259.3000	-0.322796	338.648
259.2000	-0.345927	338.74
259.1000	-0.355253	338.835
259.0000	-0.333313	338.916
258.9000	-0.346395	338.996
258.8000	-0.359251	339.086
258.7000	-0.3452	339.167
258.6000	-0.376134	339.249
258.5000	-0.474538	339.338
258.4000	-0.55798	339.41
258.3000	-0.613735	339.482
258.2000	-0.6724	339.571
258.1000	-0.701875	339.656
258.0000	-0.719098	339.736
257.9000	-0.686571	339.828
257.8000	-0.662606	339.902
257.7000	-0.523076	339.962
257.6000	-0.491682	340.035
257.5000	-0.531292	340.11
257.4000	-0.55916	340.195
257.3000	-0.543199	340.274
257.2000	-0.522899	340.362
257.1000	-0.482263	340.452
257.0000	-0.454691	340.545
256.9000	-0.465121	340.651
256.8000	-0.391313	340.749
256.7000	-0.299171	340.852
256.6000	-0.166911	340.953
256.5000	-0.131143	341.052
256.4000	-0.0916781	341.161
256.3000	-0.0572104	341.252
256.2000	-0.0458384	341.338
256.1000	-0.0151681	341.43
256.0000	-0.103608	341.509
255.9000	-0.188414	341.596
255.8000	-0.271697	341.67
255.7000	-0.356352	341.748
255.6000	-0.389627	341.825
255.5000	-0.461612	341.9
255.4000	-0.516709	341.988
255.3000	-0.629588	342.064
255.2000	-0.644412	342.156
255.1000	-0.593368	342.252
255.0000	-0.515676	342.359
254.9000	-0.50334	342.452
254.8000	-0.507747	342.54
254.7000	-0.469828	342.637
254.6000	-0.476636	342.723
254.5000	-0.412925	342.822
254.4000	-0.412678	342.914
254.3000	-0.472096	343.008
254.2000	-0.468073	343.095
254.1000	-0.424343	343.183
254.0000	-0.435835	343.258
253.9000	-0.466222	343.331
253.8000	-0.411259	343.411
253.7000	-0.397108	343.497
253.6000	-0.405277	343.576
253.5000	-0.29711	343.659
253.4000	-0.295815	343.723
253.3000	-0.286865	343.796
253.2000	-0.307156	343.88
253.1000	-0.346414	343.976
253.0000	-0.400221	344.065
252.9000	-0.469347	344.152
252.8000	-0.49152	344.237
252.7000	-0.502634	344.327
252.6000	-0.51778	344.417
252.5000	-0.615567	344.52
252.4000	-0.708769	344.618
252.3000	-0.716032	344.717
252.2000	-0.691757	344.805
252.1000	-0.702488	344.889
252.0000	-0.64594	344.972
251.9000	-0.624497	345.051
251.8000	-0.643514	345.149
251.7000	-0.635641	345.235
251.6000	-0.514428	345.327
251.5000	-0.443392	345.41
251.4000	-0.401972	345.506
251.3000	-0.335294	345.605
251.2000	-0.242083	345.711
251.1000	-0.174577	345.826
251.0000	-0.142649	345.931
250.9000	-0.122874	346.04
250.8000	-0.121553	346.148
250.7000	-0.144697	346.255
250.6000	-0.0884175	346.363
250.5000	-0.0394875	346.47
250.4000	-0.120972	346.569
250.3000	-0.232481	346.653
250.2000	-0.382782	346.738
250.1000	-0.410887	346.811
250.0000	-0.44681	346.88
249.9000	-0.510591	346.959
249.8000	-0.561265	347.027
249.7000	-0.647476	347.093
249.6000	-0.662753	347.171
249.5000	-0.660638	347.256
249.4000	-0.601392	347.351
249.3000	-0.543669	347.447
249.2000	-0.508932	347.546
249.1000	-0.471262	347.644
249.0000	-0.410029	347.741
248.9000	-0.365287	347.843
248.8000	-0.361227	347.95
248.7000	-0.31222	348.055
248.6000	-0.289278	348.15
248.5000	-0.325706	348.241
248.4000	-0.314154	348.342
248.3000	-0.304952	348.438
248.2000	-0.360396	348.541
248.1000	-0.46233	348.643
248.0000	-0.53002	348.734
247.9000	-0.591443	348.821
247.8000	-0.721043	348.906
247.7000	-0.795649	348.994
247.6000	-0.827268	349.089
247.5000	-0.834216	349.182
247.4000	-0.808759	349.264
247.3000	-0.714382	349.341
247.2000	-0.662456	349.434
247.1000	-0.62339	349.53
247.0000	-0.512001	349.634
246.9000	-0.39086	349.739
246.8000	-0.296625	349.823
246.7000	-0.262123	349.9
246.6000	-0.223219	349.984
246.5000	-0.208929	350.08
246.4000	-0.141557	350.171
246.3000	-0.139928	350.253
246.2000	-0.0913262	350.339
246.1000	-0.0762138	350.435
246.0000	-0.0823925	350.546
245.9000	-0.135931	350.658
245.8000	-0.117173	350.777
245.7000	-0.16188	350.905
245.6000	-0.25644	351.037
245.5000	-0.283599	351.176
245.4000	-0.231044	351.32
245.3000	-0.262544	351.45
245.2000	-0.28023	351.581
245.1000	-0.250417	351.711
245.0000	-0.31653	351.839
244.9000	-0.29173	351.951
244.8000	-0.282714	352.054
244.7000	-0.325229	352.162
244.6000	-0.389466	352.258
244.5000	-0.450655	352.346
244.4000	-0.508495	352.429
244.3000	-0.528654	352.51
244.2000	-0.493421	352.592
244.1000	-0.55609	352.691
244.0000	-0.522315	352.804
243.9000	-0.416252	352.917
243.8000	-0.462657	353.032
243.7000	-0.478239	353.161
243.6000	-0.424087	353.293
243.5000	-0.377145	353.425
243.4000	-0.433448	353.572
243.3000	-0.435626	353.718
243.2000	-0.45836	353.858
243.1000	-0.471037	353.988
243.0000	-0.491252	354.113
242.9000	-0.474807	354.241
242.8000	-0.539501	354.365
242.7000	-0.629483	354.49
242.6000	-0.643086	354.62
242.5000	-0.627019	354.744
242.4000	-0.622508	354.875
242.3000	-0.701691	355.011
242.2000	-0.720476	355.156
242.1000	-0.708703	355.299
242.0000	-0.676011	355.442
241.9000	-0.574759	355.586
241.8000	-0.547974	355.724
241.7000	-0.458095	355.867
241.6000	-0.289612	356.012
241.5000	-0.182198	356.153
241.4000	-0.0943952	356.293
241.3000	-0.115929	356.428
241.2000	-0.0818685	356.562
241.1000	-0.147933	356.699
241.0000	-0.158046	356.842
240.9000	-0.283271	356.986
240.8000	-0.436402	357.132
240.7000	-0.550358	357.278
240.6000	-0.570526	357.427
240.5000	-0.602724	357.573
240.4000	-0.585422	357.725
240.3000	-0.53996	357.885
240.2000	-0.554148	358.048
240.1000	-0.542452	358.211
240.0000	-0.43546	358.372
239.9000	-0.381369	358.534
239.8000	-0.375685	358.701
239.7000	-0.314276	358.876
239.6000	-0.302896	359.058
239.5000	-0.36897	359.243
239.4000	-0.44944	359.427
239.3000	-0.444896	359.612
239.2000	-0.482098	359.792
239.1000	-0.513297	359.975
239.0000	-0.552822	360.163
238.9000	-0.562696	360.348
238.8000	-0.502611	360.538
238.7000	-0.404432	360.73
238.6000	-0.238465	360.918
238.5000	-0.181219	361.1
238.4000	-0.151573	361.281
238.3000	-0.133854	361.463
238.2000	-0.101424	361.644
238.1000	-0.0247326	361.831
238.0000	-0.0603709	362.013
237.9000	-0.0790221	362.195
237.8000	-0.122752	362.37
237.7000	-0.0779669	362.554
237.6000	-0.0317581	362.746
237.5000	-0.0164046	362.942
237.4000	-0.0199424	363.135
237.3000	-0.0802786	363.329
237.2000	-0.061737	363.529
237.1000	-0.0128213	363.723
237.0000	-0.0273557	363.914
236.9000	-0.0766435	364.106
236.8000	-0.103345	364.301
236.7000	-0.111365	364.503
236.6000	-0.077935	364.701
236.5000	-0.0344646	364.897
236.4000	-0.118834	365.086
236.3000	-0.272238	365.278
236.2000	-0.402764	365.479
236.1000	-0.464332	365.684
236.0000	-0.444572	365.897
235.9000	-0.438537	366.104
235.8000	-0.49258	366.314
235.7000	-0.517078	366.528
235.6000	-0.454786	366.749
235.5000	-0.320701	366.976
235.4000	-0.148165	367.206
235.3000	-0.0479966	367.43
235.2000	0.0622686	367.65
235.1000	0.0614021	367.869
235.0000	0.0332762	368.085
234.9000	-0.00453803	368.298
234.8000	-0.0476623	368.51
234.7000	-0.247166	368.714
234.6000	-0.420534	368.91
234.5000	-0.440161	369.116
234.4000	-0.494532	369.328
234.3000	-0.514527	369.541
234.2000	-0.603269	369.745
234.1000	-0.601539	369.956
234.0000	-0.509607	370.17
233.9000	-0.413808	370.384
233.8000	-0.182451	370.615
233.7000	-0.0952388	370.842
233.6000	-0.100683	371.071
233.5000	-0.121569	371.302
233.4000	-0.116345	371.534
233.3000	-0.113437	371.765
233.2000	-0.310089	371.993
233.1000	-0.289461	372.222
233.0000	-0.38265	372.446
232.9000	-0.47899	372.67
232.8000	-0.556076	372.892
232.7000	-0.573408	373.119
232.6000	-0.52824	373.347
232.5000	-0.529701	373.577
232.4000	-0.497346	373.802
232.3000	-0.445732	374.031
232.2000	-0.434746	374.256
232.1000	-0.335876	374.485
232.0000	-0.346004	374.706
231.9000	-0.321451	374.925
231.8000	-0.245906	375.14
231.7000	-0.152779	375.364
231.6000	-0.125511	375.592
231.5000	0.0196393	375.823
231.4000	0.0714105	376.059
231.3000	-0.0649429	376.284
231.2000	-0.0509312	376.517
231.1000	-0.0208773	376.748
231.0000	-0.0739117	376.973
230.9000	-0.169182	377.196
230.8000	-0.224843	377.412
230.7000	-0.279503	377.637
230.6000	-0.43008	377.853
230.5000	-0.427844	378.082
230.4000	-0.453897	378.314
230.3000	-0.516226	378.549
230.2000	-0.622523	378.786
230.1000	-0.634601	379.032
230.0000	-0.52657	379.285
229.9000	-0.446061	379.527
229.8000	-0.53745	379.762
229.7000	-0.523873	379.988
229.6000	-0.613839	380.209
229.5000	-0.728494	380.418
229.4000	-0.8035	380.623
229.3000	-0.920674	380.819
229.2000	-1.10045	381.009
229.1000	-1.24526	381.201
229.0000	-1.25567	381.406
228.9000	-1.2689	381.615
228.8000	-1.25673	381.828
228.7000	-1.11479	382.063
228.6000	-0.992256	382.306
228.5000	-0.867376	382.555
228.4000	-0.696263	382.816
228.3000	-0.564126	383.081
228.2000	-0.543739	383.34
228.1000	-0.43002	383.614
228.0000	-0.316913	383.887
227.9000	-0.274035	384.149
227.8000	-0.268056	384.399
227.7000	-0.22024	384.657
227.6000	-0.230805	384.907
227.5000	-0.302356	385.149
227.4000	-0.331171	385.39
227.3000	-0.41333	385.633
227.2000	-0.501224	385.868
227.1000	-0.554373	386.102
227.0000	-0.549325	386.338
226.9000	-0.64538	386.566
226.8000	-0.685225	386.8
226.7000	-0.62166	387.037
226.6000	-0.592016	387.27
226.5000	-0.605897	387.492
226.4000	-0.670778	387.713
226.3000	-0.646247	387.936
226.2000	-0.717782	388.164
226.1000	-0.758596	388.39
226.0000	-0.751822	388.611
225.9000	-0.894098	388.823
225.8000	-0.869961	389.044
225.7000	-0.876847	389.266
225.6000	-0.881417	389.486
225.5000	-0.980077	389.702
225.4000	-1.05615	389.918
225.3000	-0.972897	390.149
225.2000	-0.880311	390.384
225.1000	-0.830367	390.613
225.0000	-0.841278	390.844
224.9000	-0.742672	391.077
224.8000	-0.618411	391.308
224.7000	-0.465655	391.536
224.6000	-0.385598	391.763
224.5000	-0.437766	391.981
224.4000	-0.529932	392.195
224.3000	-0.644704	392.411
224.2000	-0.625668	392.628
224.1000	-0.672749	392.841
224.0000	-0.687327	393.061
223.9000	-0.753228	393.281
223.8000	-0.657409	393.507
223.7000	-0.471064	393.732
223.6000	-0.294512	393.956
223.5000	-0.124119	394.178
223.4000	-0.0197596	394.394
223.3000	-0.0187758	394.603
223.2000	0.0620532	394.809
223.1000	0.0735828	395.015
223.0000	0.13915	395.221
222.9000	0.139793	395.428
222.8000	0.00699283	395.63
222.7000	-0.0219469	395.836
222.6000	0.0351242	396.045
222.5000	0.168987	396.262
222.4000	0.182391	396.468
222.3000	0.128327	396.672
222.2000	0.055839	396.877
222.1000	-0.0247873	397.075
222.0000	0.0134636	397.277
221.9000	-0.0213975	397.471
221.8000	-0.186036	397.66
221.7000	-0.435247	397.85
221.6000	-0.554866	398.049
221.5000	-0.603175	398.252
221.4000	-0.564885	398.45
221.3000	-0.548883	398.651
221.2000	-0.59466	398.846
221.1000	-0.568729	399.046
221.0000	-0.417263	399.245
220.9000	-0.242657	399.446
220.8000	-0.174318	399.641
220.7000	-0.0629742	399.831
220.6000	0.0212657	400.024
220.5000	0.0642091	400.219
220.4000	0.098979	400.409
220.3000	0.153374	400.603
220.2000	0.18147	400.801
220.1000	0.161973	400.996
220.0000	0.195702	401.192
219.9000	0.195256	401.39
219.8000	0.0713481	401.585
219.7000	0.0422609	401.779
219.6000	0.0481753	401.97
219.5000	0.0121444	402.162
219.4000	0.0271653	402.355
219.3000	-0.0410251	402.543
219.2000	-0.0793968	402.732
219.1000	-0.208644	402.916
219.0000	-0.295305	403.102
218.9000	-0.357337	403.284
218.8000	-0.357307	403.474
218.7000	-0.404139	403.659
218.6000	-0.546912	403.838
218.5000	-0.615611	404.018
218.4000	-0.606902	404.205
218.3000	-0.440278	404.392
218.2000	-0.299754	404.583
218.1000	-0.144189	404.774
218.0000	-0.129422	404.961
217.9000	-0.108345	405.146
217.8000	0.0502213	405.33
217.7000	0.232602	405.517
217.6000	0.178315	405.691
217.5000	0.0238942	405.866
217.4000	-0.0968699	406.036
217.3000	-0.205831	406.205
217.2000	-0.2166	406.38
217.1000	-0.270403	406.551
217.0000	-0.382486	406.72
216.9000	-0.577969	406.892
216.8000	-0.687643	407.066
216.7000	-0.602108	407.24
216.6000	-0.550807	407.42
216.5000	-0.487371	407.599
216.4000	-0.350671	407.776
216.3000	-0.281085	407.948
216.2000	-0.416075	408.123
216.1000	-0.566016	408.294
216.0000	-0.496802	408.473
215.9000	-0.680785	408.643
215.8000	-0.843581	408.81
215.7000	-0.931592	408.984
215.6000	-1.12152	409.157
215.5000	-1.12704	409.34
215.4000	-1.07329	409.52
215.3000	-0.944164	409.703
215.2000	-0.944204	409.879
215.1000	-0.865924	410.069
215.0000	-0.762855	410.26
214.9000	-0.657689	410.451
214.8000	-0.638532	410.637
214.7000	-0.790574	410.815
214.6000	-0.82726	410.995
214.5000	-0.776918	411.181
214.4000	-0.698873	411.368
214.3000	-0.583646	411.553
214.2000	-0.477611	411.735
214.1000	-0.566972	411.907
214.0000	-0.639924	412.083
213.9000	-0.563344	412.268
213.8000	-0.530084	412.452
213.7000	-0.437468	412.64
213.6000	-0.416382	412.825
213.5000	-0.380151	413.012
213.4000	-0.450087	413.196
213.3000	-0.321732	413.392
213.2000	-0.292595	413.588
213.1000	-0.346939	413.779
213.0000	-0.339339	413.976
212.9000	-0.401072	414.172
212.8000	-0.429344	414.363
212.7000	-0.57193	414.553
212.6000	-0.767847	414.743
212.5000	-0.851052	414.934
212.4000	-0.730054	415.134
212.3000	-0.655358	415.332
212.2000	-0.702971	415.526
212.1000	-0.845765	415.717
212.0000	-0.918023	415.918
211.9000	-0.913453	416.124
211.8000	-0.928022	416.327
211.7000	-0.79537	416.539
211.6000	-0.832278	416.748
211.5000	-0.712545	416.961
211.4000	-0.662108	417.173
211.3000	-0.62039	417.389
211.2000	-0.616558	417.598
211.1000	-0.59804	417.81
211.0000	-0.352623	418.035
210.9000	-0.230398	418.253
210.8000	-0.298606	418.464
210.7000	-0.384926	418.682
210.6000	-0.529989	418.895
210.5000	-0.496294	419.118
210.4000	-0.407468	419.344
210.3000	-0.389244	419.575
210.2000	-0.331821	419.798
210.1000	-0.247188	420.03
210.0000	-0.250925	420.26
209.9000	-0.38158	420.484
209.8000	-0.333025	420.71
209.7000	-0.255293	420.943
209.6000	-0.289361	421.169
209.5000	-0.253462	421.402
209.4000	-0.257721	421.635
209.3000	-0.402729	421.86
209.2000	-0.495041	422.088
209.1000	-0.37688	422.321
209.0000	-0.333102	422.554
208.9000	-0.404727	422.786
208.8000	-0.554585	423.014
208.7000	-0.640831	423.242
208.6000	-0.657292	423.478
208.5000	-0.720361	423.715
208.4000	-0.780631	423.954
208.3000	-0.835922	424.198
208.2000	-0.757155	424.45
208.1000	-0.678924	424.701
208.0000	-0.453371	424.955
207.9000	-0.295707	425.208
207.8000	-0.366909	425.458
207.7000	-0.385434	425.706
207.6000	-0.3077	425.958
207.5000	-0.0953821	426.212
207.4000	-0.0933607	426.456
207.3000	-0.0152122	426.703
207.2000	-0.00782069	426.948
207.1000	-0.0852162	427.19
207.0000	0.00287293	427.438
206.9000	0.211595	427.688
206.8000	0.274251	427.932
206.7000	0.230063	428.172
206.6000	0.238904	428.417
206.5000	0.182545	428.663
206.4000	0.0892049	428.912
206.3000	0.0641857	429.163
206.2000	0.169392	429.41
206.1000	0.147638	429.649
206.0000	0.285336	429.895
205.9000	0.343028	430.14
205.8000	0.393916	430.382
205.7000	0.415004	430.624
205.6000	0.497178	430.866
205.5000	0.518504	431.111
205.4000	0.314756	431.348
205.3000	0.182546	431.595
205.2000	-0.0460383	431.843
205.1000	-0.176537	432.095
205.0000	-0.157202	432.351
204.9000	-0.117503	432.612
204.8000	-0.257695	432.867
204.7000	-0.479193	433.122
204.6000	-0.518835	433.384
204.5000	-0.53433	433.651
204.4000	-0.541207	433.914
204.3000	-0.616725	434.178
204.2000	-0.815828	434.443
204.1000	-1.02474	434.705
204.0000	-1.0348	434.976
203.9000	-0.758215	435.252
203.8000	-0.43687	435.533
203.7000	-0.0949886	435.815
203.6000	0.200961	436.098
203.5000	0.426733	436.379
203.4000	0.803235	436.664
203.3000	1.10319	436.951
203.2000	1.3005	437.238
203.1000	1.1176	437.519
203.0000	1.01317	437.803
202.9000	0.705652	438.08
202.8000	0.462663	438.357
202.7000	0.30635	438.642
202.6000	0.178598	438.928
202.5000	-0.0410666	439.21
202.4000	-0.342481	439.488
202.3000	-0.283498	439.779
202.2000	-0.232747	440.07
202.1000	-0.247686	440.361
202.0000	-0.256695	440.66
201.9000	-0.25983	440.965
201.8000	-0.353318	441.268
201.7000	-0.392867	441.578
201.6000	-0.260798	441.898
201.5000	-0.275051	442.217
201.4000	-0.321125	442.54
201.3000	-0.171875	442.873
201.2000	0.0857549	443.212
201.1000	0.221382	443.549
201.0000	0.322324	443.887
200.9000	0.443375	444.231
200.8000	0.328703	444.573
200.7000	0.176489	444.918
200.6000	0.282699	445.273
200.5000	0.251397	445.632
200.4000	0.221989	445.997
200.3000	0.088757	446.366
200.2000	-0.140674	446.732
200.1000	-0.336891	447.096
200.0000	-0.117239	447.472
199.9000	0.120433	447.845
199.8000	0.0566358	448.205
199.7000	-0.220098	448.543
199.6000	-0.374109	448.878
199.5000	-0.353476	449.215
199.4000	-0.383908	449.546
199.3000	-0.324685	449.88
199.2000	-0.473033	450.212
199.1000	-0.546083	450.55
199.0000	-0.46422	450.898
198.9000	-0.413488	451.259
198.8000	-0.330412	451.633
198.7000	-0.28949	452.018
198.6000	-0.215939	452.417
198.5000	-0.173708	452.829
198.4000	-0.209834	453.242
198.3000	-0.335781	453.659
198.2000	-0.555243	454.091
198.1000	-0.912903	454.534
198.0000	-0.884707	455.015
197.9000	-1.05824	455.501
197.8000	-1.24771	455.995
197.7000	-1.19565	456.506
197.6000	-1.12607	457.021
197.5000	-0.998047	457.537
197.4000	-0.951245	458.031
197.3000	-0.570107	458.506
197.2000	-0.2653	458.934
197.1000	-0.104026	459.31
197.0000	0.00700566	459.66
196.9000	-0.0516663	459.983
196.8000	-0.11891	460.296
196.7000	-0.0387673	460.615
196.6000	-0.0928087	460.942
196.5000	-0.301116	461.289
196.4000	-0.508321	461.684
196.3000	-0.679174	462.124
196.2000	-0.760999	462.617
196.1000	-0.828294	463.154
196.0000	-0.969431	463.74
195.9000	-1.00214	464.398
195.8000	-0.979904	465.14
195.7000	-0.894917	465.984
195.6000	-0.670498	466.93
195.5000	-0.613755	467.967
195.4000	-0.326139	469.077
195.3000	-0.116432	470.213
195.2000	-0.13189	471.342
195.1000	-0.281717	472.424
195.0000	-0.433208	473.399
194.9000	-0.382233	474.215
194.8000	-0.242642	474.832
194.7000	-0.018856	475.255
194.6000	-0.274334	475.506
194.5000	-0.465446	475.642
194.4000	-0.421163	475.714
194.3000	-0.17686	475.758
194.2000	-0.119598	475.827
194.1000	-0.202093	475.992
194.0000	-0.42423	476.304
193.9000	-0.672734	476.802
193.8000	-0.916256	477.501
193.7000	-0.863714	478.446
193.6000	-0.829024	479.646
193.5000	-0.764145	481.143
193.4000	-0.825544	482.967
193.3000	-0.658205	485.121
193.2000	-0.399731	487.544
193.1000	-0.518271	490.138
193.0000	-0.272812	492.827
192.9000	-0.0697286	495.466
192.8000	-0.0650888	497.9
192.7000	-0.205312	499.957
192.6000	-0.145131	501.467
192.5000	-0.328848	502.349
192.4000	-0.578219	502.646
192.3000	-0.433982	502.466
192.2000	-0.700372	501.903
192.1000	-0.895975	501.101
192.0000	-0.883046	500.221
191.9000	-0.739339	499.439
191.8000	-0.798124	498.962
191.7000	-0.6146	498.946
191.6000	-0.349244	499.439
191.5000	-0.308715	500.445
191.4000	-0.331014	501.959
191.3000	-0.705532	504.012
191.2000	-1.22614	506.625
191.1000	-1.7444	509.777
191.0000	-1.75903	513.38
190.9000	-1.72251	517.251
190.8000	-1.6998	521.221
190.7000	-1.49061	525.104
190.6000	-1.11845	528.706
190.5000	-0.466592	531.787
190.4000	0.295921	534.1
190.3000	0.824784	535.522
190.2000	1.17132	536.091
190.1000	0.921213	535.949
190.0000	0.2	535.301

##### Extended Information
[Comments]
Sample name	Erg_0.6uM
Comment
User
Division
Company	CSIR-IMTECH

[Detailed Information]
Creation date	4/9/2024 1:16 PM

Data array type	Linear data array * 2
Horizontal axis	Wavelength [nm]
Vertical axis(1)	CD [mdeg]
Vertical axis(2)	HT [V]
Start	350 nm
End	190 nm
Data interval	0.1 nm
Data points	1601    

[Measurement Information]
Instrument Name	JASCO CD
Model Name	J-815
Serial No.	B063061168

Accessory	PTC-423S
Accessory S/N	C013945-01
  Temperature	37.02 C
  Control Sonsor	Cell
  Monitor Sensor	Cell
  Start Mode	Start immediately
  Cell Length	10 mm

Measurement date	4/9/2024 1:15 PM

Photometric Mode	CD, HT
Measure Range	350 - 190 nm
Data pitch	0.1 nm
Sensitivity	Standard
D.I.T.	1 sec
Bandwidth	1.00 nm
Start Mode	Immediately
Scanning Speed	50 nm/min
Baseline Correction	None
Shutter Control	Auto
CD Detector	PMT
PMT Voltage	Auto
Accumulations	3
Concentration	0.6 umol/L

