TITLE,cal_0.8uM
DATA TYPE,
ORIGIN,JASCO
OWNER,
DATE,24/04/09
TIME,15:44:23
SPECTROMETER/DATA SYSTEM,
LOCALE,1033
RESOLUTION,
DELTAX,-0.1
XUNITS,NANOMETERS
YUNITS,CD [mdeg]
Y2UNITS,HT [V]
FIRSTX,  350.0000
LASTX,  190.0000
NPOINTS,    1601
FIRSTY,    -0.10571
MAXY,     2.38626
MINY,    -1.56476
XYDATA
350.0000,-0.105705,488.229
349.9000,-0.210655,487.609
349.8000,-0.466729,486.682
349.7000,-0.594205,485.755
349.6000,-0.541862,485.1
349.5000,-0.429167,484.533
349.4000,-0.319999,483.668
349.3000,-0.254212,483.056
349.2000,-0.0858955,482.53
349.1000,-0.0950358,481.674
349.0000,-0.141099,481.034
348.9000,-0.301032,480.462
348.8000,-0.532384,479.582
348.7000,-0.855361,478.682
348.6000,-1.07251,478.026
348.5000,-1.09143,477.456
348.4000,-1.16211,476.55
348.3000,-1.21136,475.878
348.2000,-0.910812,475.304
348.1000,-0.620624,474.448
348.0000,-0.588708,473.804
347.9000,-0.347755,473.25
347.8000,-0.289995,472.406
347.7000,-0.0679315,471.549
347.6000,0.126115,470.943
347.5000,0.402616,470.441
347.4000,0.635757,469.648
347.3000,0.704334,469.048
347.2000,0.844747,468.534
347.1000,0.939299,467.742
347.0000,1.20077,467.162
346.9000,1.16759,466.65
346.8000,1.2118,465.859
346.7000,1.14068,465.056
346.6000,0.942223,464.453
346.5000,0.68436,463.667
346.4000,0.463262,462.872
346.3000,0.32594,462.269
346.2000,0.396911,461.482
346.1000,0.246032,460.673
346.0000,0.278065,460.081
345.9000,0.202404,459.571
345.8000,0.259068,458.781
345.7000,0.270355,458.194
345.6000,0.288032,457.687
345.5000,0.399792,456.95
345.4000,0.263446,456.405
345.3000,0.24606,455.949
345.2000,0.277222,455.229
345.1000,0.224264,454.499
345.0000,0.293161,453.962
344.9000,0.173414,453.27
344.8000,0.182305,452.57
344.7000,0.0424339,452.028
344.6000,-0.127925,451.347
344.5000,-0.016665,450.67
344.4000,-0.188108,450.164
344.3000,-0.331588,449.477
344.2000,-0.452917,448.776
344.1000,-0.563051,448.244
344.0000,-0.411965,447.585
343.9000,-0.328541,446.915
343.8000,-0.252813,446.419
343.7000,-0.25766,445.974
343.6000,-0.293907,445.281
343.5000,-0.274561,444.783
343.4000,-0.498703,444.358
343.3000,-0.539196,443.71
343.2000,-0.630777,443.221
343.1000,-0.842329,442.788
343.0000,-0.992572,442.151
342.9000,-1.08799,441.504
342.8000,-1.1207,441.03
342.7000,-1.08213,440.415
342.6000,-1.03146,439.797
342.5000,-1.10387,439.335
342.4000,-1.09161,438.755
342.3000,-0.94003,438.173
342.2000,-0.556474,437.737
342.1000,-0.100472,437.176
342.0000,-0.037253,436.596
341.9000,-0.013532,436.179
341.8000,-0.0481118,435.597
341.7000,0.0187549,435.007
341.6000,0.0989802,434.563
341.5000,0.120721,434.008
341.4000,-0.0664928,433.443
341.3000,-0.386454,433.016
341.2000,-0.457942,432.429
341.1000,-0.370043,431.834
341.0000,-0.175698,431.404
340.9000,0.0928653,430.867
340.8000,0.064089,430.313
340.7000,0.0417183,429.88
340.6000,0.150182,429.331
340.5000,0.240626,428.778
340.4000,0.29424,428.382
340.3000,0.360141,427.859
340.2000,0.396484,427.326
340.1000,0.41429,426.93
340.0000,0.580801,426.432
339.9000,0.691339,425.928
339.8000,0.669767,425.543
339.7000,0.675622,425.057
339.6000,0.644737,424.569
339.5000,0.724722,424.231
339.4000,0.675689,423.756
339.3000,0.536333,423.262
339.2000,0.417799,422.734
339.1000,0.407964,422.27
339.0000,0.434705,421.798
338.9000,0.427615,421.251
338.8000,0.45581,420.748
338.7000,0.397711,420.232
338.6000,0.252099,419.681
338.5000,0.179819,419.199
338.4000,0.247769,418.836
338.3000,0.134399,418.359
338.2000,0.0458404,417.872
338.1000,-0.145741,417.517
338.0000,-0.215381,417.072
337.9000,-0.253903,416.621
337.8000,-0.260902,416.3
337.7000,-0.361368,415.894
337.6000,-0.529563,415.478
337.5000,-0.595643,415.177
337.4000,-0.619397,414.786
337.3000,-0.57647,414.386
337.2000,-0.566721,413.924
337.1000,-0.510984,413.516
337.0000,-0.559105,413.094
336.9000,-0.507513,412.642
336.8000,-0.495008,412.235
336.7000,-0.474549,411.823
336.6000,-0.461247,411.355
336.5000,-0.346175,410.929
336.4000,-0.333543,410.627
336.3000,-0.334255,410.219
336.2000,-0.351147,409.803
336.1000,-0.289321,409.496
336.0000,-0.170729,409.106
335.9000,-0.0137769,408.7
335.8000,0.123065,408.265
335.7000,0.155945,407.879
335.6000,-0.0434654,407.478
335.5000,-0.142625,407.07
335.4000,-0.179756,406.712
335.3000,-0.147104,406.347
335.2000,-0.134807,405.949
335.1000,-0.154337,405.594
335.0000,-0.191898,405.348
334.9000,-0.246774,404.995
334.8000,-0.0810869,404.635
334.7000,-0.0512757,404.244
334.6000,-0.0539371,403.901
334.5000,-0.0556078,403.554
334.4000,-0.131028,403.149
334.3000,-0.17633,402.78
334.2000,-0.15204,402.405
334.1000,-0.0126921,402.01
334.0000,0.036038,401.668
333.9000,0.0971776,401.417
333.8000,0.184228,401.073
333.7000,0.158827,400.712
333.6000,0.107698,400.32
333.5000,0.16187,399.986
333.4000,0.172208,399.645
333.3000,0.0166337,399.28
333.2000,-0.114292,398.96
333.1000,-0.237348,398.633
333.0000,-0.205186,398.291
332.9000,-0.0293443,397.992
332.8000,0.0854727,397.65
332.7000,0.165818,397.351
332.6000,0.126194,397.042
332.5000,0.0576193,396.705
332.4000,-0.0271161,396.406
332.3000,-0.0408503,396.104
332.2000,-0.0754403,395.749
332.1000,-0.20216,395.419
332.0000,-0.30509,395.077
331.9000,-0.337795,394.784
331.8000,-0.413496,394.487
331.7000,-0.388671,394.143
331.6000,-0.309405,393.833
331.5000,-0.263208,393.405
331.4000,-0.179174,393.073
331.3000,-0.14266,392.79
331.2000,-0.0605468,392.473
331.1000,0.0463773,392.193
331.0000,0.0714319,391.904
330.9000,0.110118,391.613
330.8000,0.172278,391.359
330.7000,0.20352,391.058
330.6000,0.24652,390.789
330.5000,0.322868,390.517
330.4000,0.28029,390.223
330.3000,0.119093,389.958
330.2000,0.0633188,389.578
330.1000,0.110049,389.263
330.0000,0.144099,388.981
329.9000,0.168604,388.683
329.8000,0.135423,388.423
329.7000,0.114283,388.074
329.6000,0.116529,387.798
329.5000,0.125997,387.554
329.4000,-0.0244177,387.261
329.3000,-0.166016,387.006
329.2000,-0.193922,386.65
329.1000,-0.201851,386.37
329.0000,-0.129952,386.128
328.9000,-0.0699261,385.854
328.8000,-0.113076,385.6
328.7000,-0.161235,385.246
328.6000,-0.0893718,384.983
328.5000,0.0900834,384.769
328.4000,0.189834,384.514
328.3000,0.121109,384.286
328.2000,-0.00710481,383.973
328.1000,-0.163392,383.729
328.0000,-0.254094,383.519
327.9000,-0.311612,383.258
327.8000,-0.383257,383.029
327.7000,-0.45934,382.764
327.6000,-0.596323,382.575
327.5000,-0.756735,382.422
327.4000,-0.750844,382.155
327.3000,-0.632363,381.908
327.2000,-0.571654,381.597
327.1000,-0.460735,381.372
327.0000,-0.435167,381.183
326.9000,-0.439884,380.903
326.8000,-0.42591,380.624
326.7000,-0.372078,380.294
326.6000,-0.260753,380.09
326.5000,-0.349587,379.943
326.4000,-0.380939,379.692
326.3000,-0.423769,379.451
326.2000,-0.507121,379.183
326.1000,-0.510786,378.993
326.0000,-0.540927,378.689
325.9000,-0.443901,378.418
325.8000,-0.475562,378.156
325.7000,-0.477706,377.899
325.6000,-0.390011,377.75
325.5000,-0.391719,377.451
325.4000,-0.391285,377.162
325.3000,-0.2065,376.884
325.2000,-0.126136,376.713
325.1000,-0.126201,376.595
325.0000,0.00255705,376.326
324.9000,0.15406,376.049
324.8000,0.186699,375.755
324.7000,0.120743,375.604
324.6000,0.182178,375.531
324.5000,0.170408,375.272
324.4000,0.0755898,375.001
324.3000,0.0125351,374.747
324.2000,-0.116687,374.598
324.1000,-0.237263,374.327
324.0000,-0.352945,374.052
323.9000,-0.362932,373.773
323.8000,-0.367724,373.521
323.7000,-0.383433,373.394
323.6000,-0.385431,373.131
323.5000,-0.291812,372.848
323.4000,-0.308005,372.57
323.3000,-0.366833,372.423
323.2000,-0.361076,372.338
323.1000,-0.358538,372.076
323.0000,-0.399585,371.784
322.9000,-0.431176,371.496
322.8000,-0.480084,371.349
322.7000,-0.579059,371.09
322.6000,-0.614343,370.807
322.5000,-0.619938,370.522
322.4000,-0.615176,370.239
322.3000,-0.514757,370.074
322.2000,-0.406895,369.794
322.1000,-0.336978,369.486
322.0000,-0.239401,369.184
321.9000,-0.135248,369.015
321.8000,-0.0292789,368.737
321.7000,0.0632471,368.443
321.6000,0.132316,368.134
321.5000,0.214769,367.849
321.4000,0.221194,367.697
321.3000,0.162361,367.475
321.2000,0.0843626,367.242
321.1000,-0.0241104,367.013
321.0000,-0.103472,366.928
320.9000,-0.173777,366.767
320.8000,-0.295449,366.609
320.7000,-0.433327,366.458
320.6000,-0.618015,366.311
320.5000,-0.56116,366.277
320.4000,-0.469603,366.131
320.3000,-0.429033,365.969
320.2000,-0.430073,365.808
320.1000,-0.447946,365.751
320.0000,-0.37324,365.597
319.9000,-0.251705,365.424
319.8000,-0.165188,365.233
319.7000,-0.212194,365.027
319.6000,-0.314399,364.795
319.5000,-0.356099,364.621
319.4000,-0.307247,364.436
319.3000,-0.258252,364.226
319.2000,-0.256355,364.117
319.1000,-0.349865,363.917
319.0000,-0.395587,363.709
318.9000,-0.449303,363.498
318.8000,-0.470015,363.385
318.7000,-0.396143,363.17
318.6000,-0.413155,362.94
318.5000,-0.433712,362.74
318.4000,-0.420196,362.541
318.3000,-0.41033,362.318
318.2000,-0.388975,362.147
318.1000,-0.3506,361.977
318.0000,-0.334981,361.788
317.9000,-0.425725,361.704
317.8000,-0.418396,361.571
317.7000,-0.400774,361.421
317.6000,-0.408362,361.235
317.5000,-0.436876,361.138
317.4000,-0.460445,360.98
317.3000,-0.438495,360.815
317.2000,-0.455961,360.631
317.1000,-0.407507,360.447
317.0000,-0.501993,360.206
316.9000,-0.505608,360.002
316.8000,-0.561433,359.809
316.7000,-0.515672,359.62
316.6000,-0.471081,359.424
316.5000,-0.541671,359.262
316.4000,-0.622965,359.082
316.3000,-0.717107,358.9
316.2000,-0.660434,358.729
316.1000,-0.625997,358.607
316.0000,-0.578898,358.49
315.9000,-0.604454,358.334
315.8000,-0.631359,358.234
315.7000,-0.605827,358.068
315.6000,-0.553874,357.925
315.5000,-0.427104,357.767
315.4000,-0.339789,357.665
315.3000,-0.316879,357.468
315.2000,-0.284604,357.258
315.1000,-0.226842,357.072
315.0000,-0.241242,356.892
314.9000,-0.294657,356.709
314.8000,-0.289865,356.553
314.7000,-0.28742,356.387
314.6000,-0.31889,356.224
314.5000,-0.333912,356.074
314.4000,-0.330039,355.972
314.3000,-0.386016,355.836
314.2000,-0.481168,355.696
314.1000,-0.475806,355.517
314.0000,-0.425689,355.362
313.9000,-0.483443,355.201
313.8000,-0.420586,355.054
313.7000,-0.382596,354.842
313.6000,-0.420839,354.646
313.5000,-0.542531,354.452
313.4000,-0.486664,354.271
313.3000,-0.415515,354.097
313.2000,-0.416425,353.953
313.1000,-0.378793,353.802
313.0000,-0.430519,353.652
312.9000,-0.506677,353.511
312.8000,-0.496502,353.413
312.7000,-0.462162,353.29
312.6000,-0.472969,353.169
312.5000,-0.424741,353.008
312.4000,-0.401203,352.856
312.3000,-0.461668,352.678
312.2000,-0.485467,352.503
312.1000,-0.487832,352.275
312.0000,-0.517248,352.062
311.9000,-0.495935,351.86
311.8000,-0.506442,351.623
311.7000,-0.576895,351.439
311.6000,-0.716377,351.25
311.5000,-0.743974,351.101
311.4000,-0.699797,350.913
311.3000,-0.714185,350.793
311.2000,-0.693543,350.67
311.1000,-0.679987,350.569
311.0000,-0.658394,350.455
310.9000,-0.656236,350.356
310.8000,-0.574899,350.246
310.7000,-0.504535,350.147
310.6000,-0.540451,350.011
310.5000,-0.551949,349.896
310.4000,-0.565947,349.792
310.3000,-0.651111,349.7
310.2000,-0.696904,349.616
310.1000,-0.752429,349.546
310.0000,-0.760201,349.47
309.9000,-0.727667,349.407
309.8000,-0.704774,349.348
309.7000,-0.697892,349.26
309.6000,-0.69355,349.185
309.5000,-0.66103,349.069
309.4000,-0.622085,348.971
309.3000,-0.567942,348.83
309.2000,-0.485599,348.719
309.1000,-0.536183,348.548
309.0000,-0.537937,348.407
308.9000,-0.549338,348.283
308.8000,-0.523341,348.174
308.7000,-0.53324,348.072
308.6000,-0.592082,347.982
308.5000,-0.594492,347.882
308.4000,-0.582741,347.767
308.3000,-0.606903,347.697
308.2000,-0.628044,347.586
308.1000,-0.639229,347.502
308.0000,-0.662136,347.395
307.9000,-0.634918,347.307
307.8000,-0.54487,347.174
307.7000,-0.482641,347.073
307.6000,-0.509805,346.954
307.5000,-0.503966,346.793
307.4000,-0.473258,346.674
307.3000,-0.520343,346.549
307.2000,-0.576189,346.449
307.1000,-0.698623,346.314
307.0000,-0.785303,346.216
306.9000,-0.87863,346.113
306.8000,-0.912376,346.046
306.7000,-0.906945,345.975
306.6000,-0.963073,345.88
306.5000,-0.925826,345.801
306.4000,-0.840394,345.684
306.3000,-0.729426,345.599
306.2000,-0.633054,345.483
306.1000,-0.594377,345.38
306.0000,-0.593277,345.234
305.9000,-0.554236,345.13
305.8000,-0.48818,345.054
305.7000,-0.502987,344.939
305.6000,-0.540516,344.855
305.5000,-0.603353,344.769
305.4000,-0.642144,344.714
305.3000,-0.67008,344.616
305.2000,-0.683611,344.549
305.1000,-0.669032,344.47
305.0000,-0.71874,344.353
304.9000,-0.688099,344.277
304.8000,-0.732427,344.18
304.7000,-0.784371,344.092
304.6000,-0.758879,343.966
304.5000,-0.725782,343.867
304.4000,-0.698187,343.788
304.3000,-0.702675,343.681
304.2000,-0.697466,343.619
304.1000,-0.669752,343.559
304.0000,-0.659935,343.521
303.9000,-0.624223,343.441
303.8000,-0.685458,343.366
303.7000,-0.744493,343.32
303.6000,-0.768728,343.223
303.5000,-0.749365,343.16
303.4000,-0.717577,343.078
303.3000,-0.737463,342.966
303.2000,-0.788975,342.855
303.1000,-0.710344,342.77
303.0000,-0.630344,342.719
302.9000,-0.585084,342.625
302.8000,-0.543402,342.548
302.7000,-0.53293,342.484
302.6000,-0.584722,342.396
302.5000,-0.629024,342.348
302.4000,-0.595018,342.294
302.3000,-0.576585,342.205
302.2000,-0.602362,342.117
302.1000,-0.620761,342.027
302.0000,-0.68948,341.968
301.9000,-0.725529,341.88
301.8000,-0.756981,341.803
301.7000,-0.755888,341.741
301.6000,-0.83178,341.648
301.5000,-0.877838,341.597
301.4000,-0.923474,341.542
301.3000,-0.887744,341.468
301.2000,-0.790531,341.406
301.1000,-0.749139,341.347
301.0000,-0.702387,341.318
300.9000,-0.673659,341.245
300.8000,-0.621082,341.171
300.7000,-0.667003,341.107
300.6000,-0.626421,341.028
300.5000,-0.597426,340.963
300.4000,-0.62665,340.91
300.3000,-0.645718,340.835
300.2000,-0.668202,340.764
300.1000,-0.67666,340.71
300.0000,-0.678287,340.653
299.9000,-0.61529,340.608
299.8000,-0.551207,340.561
299.7000,-0.554931,340.497
299.6000,-0.613704,340.44
299.5000,-0.686723,340.378
299.4000,-0.706449,340.327
299.3000,-0.703055,340.257
299.2000,-0.6835,340.201
299.1000,-0.639827,340.16
299.0000,-0.664297,340.094
298.9000,-0.710514,340.045
298.8000,-0.68358,340.009
298.7000,-0.626856,339.954
298.6000,-0.584248,339.91
298.5000,-0.634663,339.859
298.4000,-0.653344,339.799
298.3000,-0.671675,339.744
298.2000,-0.691747,339.684
298.1000,-0.732718,339.622
298.0000,-0.790639,339.563
297.9000,-0.792688,339.515
297.8000,-0.833717,339.446
297.7000,-0.877314,339.391
297.6000,-0.903518,339.349
297.5000,-0.998155,339.281
297.4000,-1.06035,339.235
297.3000,-1.03513,339.199
297.2000,-0.963294,339.139
297.1000,-0.942073,339.09
297.0000,-0.888022,339.043
296.9000,-0.797085,338.978
296.8000,-0.733571,338.927
296.7000,-0.682864,338.887
296.6000,-0.669331,338.855
296.5000,-0.708774,338.804
296.4000,-0.72135,338.766
296.3000,-0.758534,338.74
296.2000,-0.772034,338.698
296.1000,-0.761424,338.665
296.0000,-0.781072,338.639
295.9000,-0.799365,338.591
295.8000,-0.764299,338.528
295.7000,-0.667042,338.488
295.6000,-0.654671,338.444
295.5000,-0.65766,338.379
295.4000,-0.668519,338.307
295.3000,-0.679654,338.262
295.2000,-0.71099,338.203
295.1000,-0.666578,338.137
295.0000,-0.600963,338.103
294.9000,-0.615336,338.057
294.8000,-0.650315,337.991
294.7000,-0.659943,337.953
294.6000,-0.5513,337.928
294.5000,-0.555397,337.882
294.4000,-0.604997,337.844
294.3000,-0.639626,337.815
294.2000,-0.765519,337.765
294.1000,-0.872172,337.725
294.0000,-0.910481,337.7
293.9000,-0.897432,337.655
293.8000,-0.915253,337.625
293.7000,-0.933094,337.601
293.6000,-0.911709,337.553
293.5000,-0.908832,337.496
293.4000,-0.863489,337.47
293.3000,-0.803679,337.427
293.2000,-0.71641,337.372
293.1000,-0.672388,337.349
293.0000,-0.698289,337.299
292.9000,-0.734612,337.242
292.8000,-0.745736,337.219
292.7000,-0.685177,337.197
292.6000,-0.725354,337.156
292.5000,-0.799158,337.098
292.4000,-0.885529,337.063
292.3000,-0.96622,337.013
292.2000,-1.00163,336.962
292.1000,-1.02981,336.937
292.0000,-1.07776,336.893
291.9000,-1.13948,336.832
291.8000,-1.15221,336.781
291.7000,-1.13243,336.762
291.6000,-1.1303,336.724
291.5000,-1.09278,336.679
291.4000,-1.06344,336.656
291.3000,-1.02749,336.612
291.2000,-0.933368,336.554
291.1000,-0.902688,336.494
291.0000,-0.803887,336.457
290.9000,-0.69897,336.398
290.8000,-0.603625,336.314
290.7000,-0.548113,336.224
290.6000,-0.47042,336.124
290.5000,-0.451879,335.997
290.4000,-0.394654,335.863
290.3000,-0.381667,335.745
290.2000,-0.404026,335.6
290.1000,-0.502571,335.44
290.0000,-0.608087,335.292
289.9000,-0.606413,335.188
289.8000,-0.651689,335.09
289.7000,-0.698057,335.016
289.6000,-0.737159,334.98
289.5000,-0.797519,334.983
289.4000,-0.841633,335.012
289.3000,-0.859947,335.075
289.2000,-0.867669,335.162
289.1000,-0.897284,335.273
289.0000,-0.955948,335.382
288.9000,-0.984689,335.487
288.8000,-0.998,335.587
288.7000,-1.00057,335.675
288.6000,-0.983167,335.746
288.5000,-0.955061,335.801
288.4000,-0.89743,335.84
288.3000,-0.856664,335.866
288.2000,-0.773331,335.872
288.1000,-0.689677,335.87
288.0000,-0.637972,335.853
287.9000,-0.580604,335.829
287.8000,-0.519957,335.812
287.7000,-0.464885,335.79
287.6000,-0.411026,335.769
287.5000,-0.334474,335.736
287.4000,-0.360621,335.715
287.3000,-0.426026,335.701
287.2000,-0.490781,335.685
287.1000,-0.520073,335.669
287.0000,-0.569159,335.629
286.9000,-0.639344,335.605
286.8000,-0.704848,335.589
286.7000,-0.814934,335.572
286.6000,-0.873555,335.543
286.5000,-0.829446,335.534
286.4000,-0.825762,335.529
286.3000,-0.839601,335.525
286.2000,-0.878075,335.519
286.1000,-0.9089,335.511
286.0000,-0.900111,335.516
285.9000,-0.873222,335.51
285.8000,-0.801241,335.512
285.7000,-0.73508,335.492
285.6000,-0.695156,335.469
285.5000,-0.62737,335.473
285.4000,-0.537082,335.474
285.3000,-0.517103,335.482
285.2000,-0.536628,335.458
285.1000,-0.525314,335.445
285.0000,-0.558911,335.452
284.9000,-0.634573,335.443
284.8000,-0.724743,335.443
284.7000,-0.797148,335.418
284.6000,-0.878282,335.4
284.5000,-0.905792,335.402
284.4000,-0.86955,335.406
284.3000,-0.819582,335.416
284.2000,-0.782776,335.4
284.1000,-0.735794,335.394
284.0000,-0.660331,335.379
283.9000,-0.550325,335.389
283.8000,-0.435149,335.404
283.7000,-0.364679,335.397
283.6000,-0.285888,335.393
283.5000,-0.26465,335.385
283.4000,-0.288953,335.385
283.3000,-0.298754,335.402
283.2000,-0.36139,335.417
283.1000,-0.450587,335.421
283.0000,-0.575594,335.408
282.9000,-0.666282,335.401
282.8000,-0.745068,335.392
282.7000,-0.802181,335.405
282.6000,-0.848869,335.419
282.5000,-0.938006,335.418
282.4000,-0.958265,335.411
282.3000,-0.908442,335.407
282.2000,-0.930662,335.407
282.1000,-0.92198,335.426
282.0000,-0.927849,335.441
281.9000,-0.945222,335.44
281.8000,-1.02444,335.433
281.7000,-1.02823,335.426
281.6000,-1.06269,335.426
281.5000,-1.14065,335.428
281.4000,-1.20561,335.451
281.3000,-1.25627,335.458
281.2000,-1.26193,335.46
281.1000,-1.29192,335.462
281.0000,-1.31679,335.465
280.9000,-1.23817,335.474
280.8000,-1.08136,335.479
280.7000,-0.953018,335.483
280.6000,-0.879291,335.492
280.5000,-0.784967,335.491
280.4000,-0.74131,335.494
280.3000,-0.683385,335.494
280.2000,-0.642579,335.491
280.1000,-0.631622,335.485
280.0000,-0.700497,335.476
279.9000,-0.775572,335.469
279.8000,-0.777675,335.451
279.7000,-0.785596,335.449
279.6000,-0.791513,335.445
279.5000,-0.822109,335.441
279.4000,-0.847399,335.443
279.3000,-0.795149,335.444
279.2000,-0.825028,335.448
279.1000,-0.839302,335.452
279.0000,-0.825706,335.457
278.9000,-0.8206,335.453
278.8000,-0.833657,335.465
278.7000,-0.798106,335.486
278.6000,-0.750148,335.506
278.5000,-0.755322,335.525
278.4000,-0.714809,335.541
278.3000,-0.658825,335.56
278.2000,-0.645388,335.581
278.1000,-0.668808,335.595
278.0000,-0.621714,335.596
277.9000,-0.651376,335.584
277.8000,-0.734517,335.575
277.7000,-0.728898,335.572
277.6000,-0.73116,335.585
277.5000,-0.714058,335.6
277.4000,-0.692077,335.619
277.3000,-0.693282,335.638
277.2000,-0.697712,335.655
277.1000,-0.596736,335.683
277.0000,-0.430421,335.71
276.9000,-0.372652,335.733
276.8000,-0.346418,335.742
276.7000,-0.367709,335.743
276.6000,-0.42219,335.741
276.5000,-0.439522,335.743
276.4000,-0.416246,335.747
276.3000,-0.517183,335.747
276.2000,-0.593038,335.746
276.1000,-0.612511,335.751
276.0000,-0.632463,335.775
275.9000,-0.579683,335.806
275.8000,-0.552847,335.837
275.7000,-0.545171,335.863
275.6000,-0.58754,335.892
275.5000,-0.65877,335.917
275.4000,-0.719694,335.943
275.3000,-0.804227,335.966
275.2000,-0.817798,335.975
275.1000,-0.822536,335.985
275.0000,-0.855066,335.994
274.9000,-0.919177,336.004
274.8000,-0.913826,336.013
274.7000,-0.827275,336.029
274.6000,-0.730618,336.046
274.5000,-0.623947,336.066
274.4000,-0.558127,336.087
274.3000,-0.560681,336.103
274.2000,-0.562483,336.113
274.1000,-0.536205,336.125
274.0000,-0.5197,336.137
273.9000,-0.546655,336.148
273.8000,-0.582167,336.159
273.7000,-0.61716,336.172
273.6000,-0.70046,336.18
273.5000,-0.812356,336.191
273.4000,-0.873486,336.205
273.3000,-0.963517,336.223
273.2000,-0.997644,336.244
273.1000,-1.04664,336.266
273.0000,-1.05176,336.288
272.9000,-1.05739,336.307
272.8000,-1.04833,336.323
272.7000,-0.959869,336.341
272.6000,-0.902815,336.359
272.5000,-0.744749,336.381
272.4000,-0.669872,336.4
272.3000,-0.544972,336.421
272.2000,-0.436528,336.446
272.1000,-0.403038,336.467
272.0000,-0.370877,336.492
271.9000,-0.377906,336.519
271.8000,-0.405669,336.54
271.7000,-0.435868,336.565
271.6000,-0.445405,336.589
271.5000,-0.449805,336.614
271.4000,-0.549017,336.632
271.3000,-0.59932,336.648
271.2000,-0.551443,336.668
271.1000,-0.536352,336.684
271.0000,-0.463766,336.694
270.9000,-0.441605,336.681
270.8000,-0.433823,336.666
270.7000,-0.504345,336.649
270.6000,-0.532307,336.63
270.5000,-0.547403,336.612
270.4000,-0.589374,336.596
270.3000,-0.639866,336.581
270.2000,-0.64056,336.576
270.1000,-0.663389,336.586
270.0000,-0.680166,336.607
269.9000,-0.68923,336.625
269.8000,-0.612177,336.652
269.7000,-0.593234,336.682
269.6000,-0.641477,336.712
269.5000,-0.699558,336.735
269.4000,-0.778009,336.742
269.3000,-0.925617,336.745
269.2000,-0.954848,336.754
269.1000,-0.955755,336.77
269.0000,-0.955608,336.785
268.9000,-0.932118,336.807
268.8000,-0.873027,336.825
268.7000,-0.828118,336.855
268.6000,-0.826749,336.895
268.5000,-0.779948,336.953
268.4000,-0.790312,337.009
268.3000,-0.787479,337.049
268.2000,-0.855627,337.094
268.1000,-0.903059,337.134
268.0000,-0.885396,337.185
267.9000,-0.837373,337.23
267.8000,-0.750656,337.28
267.7000,-0.672391,337.325
267.6000,-0.56673,337.377
267.5000,-0.504767,337.433
267.4000,-0.44386,337.473
267.3000,-0.400165,337.516
267.2000,-0.386758,337.547
267.1000,-0.344298,337.59
267.0000,-0.31905,337.633
266.9000,-0.306354,337.683
266.8000,-0.347655,337.722
266.7000,-0.410406,337.753
266.6000,-0.404596,337.806
266.5000,-0.468283,337.858
266.4000,-0.484933,337.923
266.3000,-0.577468,337.986
266.2000,-0.684303,338.049
266.1000,-0.774358,338.111
266.0000,-0.814451,338.167
265.9000,-0.818668,338.237
265.8000,-0.870413,338.303
265.7000,-0.846525,338.369
265.6000,-0.858125,338.438
265.5000,-0.836714,338.512
265.4000,-0.798118,338.566
265.3000,-0.738116,338.613
265.2000,-0.743435,338.663
265.1000,-0.755955,338.718
265.0000,-0.766532,338.782
264.9000,-0.835519,338.853
264.8000,-0.855895,338.908
264.7000,-0.8243,338.961
264.6000,-0.877078,339.021
264.5000,-0.902947,339.094
264.4000,-0.866293,339.174
264.3000,-0.81259,339.245
264.2000,-0.829132,339.312
264.1000,-0.768956,339.378
264.0000,-0.687116,339.45
263.9000,-0.619228,339.527
263.8000,-0.589795,339.591
263.7000,-0.539671,339.658
263.6000,-0.499271,339.733
263.5000,-0.488854,339.816
263.4000,-0.449881,339.91
263.3000,-0.432655,339.979
263.2000,-0.423916,340.046
263.1000,-0.400459,340.123
263.0000,-0.319863,340.208
262.9000,-0.272616,340.282
262.8000,-0.347339,340.355
262.7000,-0.414373,340.422
262.6000,-0.456388,340.48
262.5000,-0.435502,340.559
262.4000,-0.463742,340.639
262.3000,-0.574436,340.719
262.2000,-0.743629,340.788
262.1000,-0.789021,340.874
262.0000,-0.744156,340.947
261.9000,-0.695944,341.023
261.8000,-0.64917,341.107
261.7000,-0.58547,341.18
261.6000,-0.534616,341.25
261.5000,-0.422328,341.326
261.4000,-0.366621,341.407
261.3000,-0.359752,341.484
261.2000,-0.424401,341.57
261.1000,-0.4344,341.663
261.0000,-0.415198,341.758
260.9000,-0.45094,341.837
260.8000,-0.516774,341.922
260.7000,-0.619767,342.006
260.6000,-0.641615,342.08
260.5000,-0.670406,342.161
260.4000,-0.607521,342.247
260.3000,-0.58342,342.328
260.2000,-0.590899,342.386
260.1000,-0.520436,342.461
260.0000,-0.469278,342.547
259.9000,-0.353501,342.628
259.8000,-0.352195,342.72
259.7000,-0.34951,342.812
259.6000,-0.329117,342.889
259.5000,-0.346438,342.967
259.4000,-0.39353,343.055
259.3000,-0.486123,343.141
259.2000,-0.519977,343.232
259.1000,-0.528583,343.334
259.0000,-0.456713,343.426
258.9000,-0.414576,343.513
258.8000,-0.455243,343.61
258.7000,-0.480533,343.709
258.6000,-0.517762,343.816
258.5000,-0.535644,343.932
258.4000,-0.539331,344.032
258.3000,-0.58622,344.123
258.2000,-0.653534,344.219
258.1000,-0.695763,344.307
258.0000,-0.698877,344.399
257.9000,-0.684475,344.492
257.8000,-0.656171,344.571
257.7000,-0.64078,344.649
257.6000,-0.646923,344.739
257.5000,-0.704192,344.822
257.4000,-0.719644,344.912
257.3000,-0.70117,345.004
257.2000,-0.641079,345.102
257.1000,-0.662974,345.2
257.0000,-0.617817,345.304
256.9000,-0.592961,345.41
256.8000,-0.494861,345.506
256.7000,-0.462333,345.605
256.6000,-0.407785,345.695
256.5000,-0.375665,345.774
256.4000,-0.37001,345.858
256.3000,-0.377008,345.931
256.2000,-0.469149,346.001
256.1000,-0.540606,346.077
256.0000,-0.611824,346.145
255.9000,-0.601748,346.219
255.8000,-0.554492,346.29
255.7000,-0.518294,346.38
255.6000,-0.517376,346.474
255.5000,-0.471581,346.567
255.4000,-0.385931,346.677
255.3000,-0.341531,346.778
255.2000,-0.327836,346.889
255.1000,-0.383014,346.994
255.0000,-0.433433,347.104
254.9000,-0.458402,347.207
254.8000,-0.434758,347.312
254.7000,-0.428449,347.421
254.6000,-0.384209,347.52
254.5000,-0.407939,347.615
254.4000,-0.39724,347.705
254.3000,-0.360909,347.803
254.2000,-0.261398,347.9
254.1000,-0.293981,347.999
254.0000,-0.358604,348.088
253.9000,-0.373952,348.186
253.8000,-0.381777,348.274
253.7000,-0.315333,348.365
253.6000,-0.232324,348.45
253.5000,-0.154639,348.546
253.4000,-0.187371,348.643
253.3000,-0.223289,348.746
253.2000,-0.189804,348.842
253.1000,-0.218444,348.924
253.0000,-0.262725,349.002
252.9000,-0.294872,349.089
252.8000,-0.346677,349.171
252.7000,-0.302307,349.253
252.6000,-0.287029,349.331
252.5000,-0.275988,349.41
252.4000,-0.335806,349.482
252.3000,-0.369514,349.574
252.2000,-0.384877,349.659
252.1000,-0.461298,349.744
252.0000,-0.596282,349.833
251.9000,-0.758658,349.919
251.8000,-0.91439,350.009
251.7000,-0.917247,350.086
251.6000,-0.869578,350.172
251.5000,-0.838469,350.257
251.4000,-0.878054,350.36
251.3000,-0.847935,350.46
251.2000,-0.747261,350.56
251.1000,-0.610763,350.67
251.0000,-0.436714,350.775
250.9000,-0.411029,350.888
250.8000,-0.426784,351.001
250.7000,-0.449206,351.118
250.6000,-0.45508,351.219
250.5000,-0.451228,351.319
250.4000,-0.459287,351.429
250.3000,-0.523259,351.519
250.2000,-0.618405,351.609
250.1000,-0.674666,351.69
250.0000,-0.703269,351.769
249.9000,-0.650338,351.859
249.8000,-0.597221,351.946
249.7000,-0.513115,352.039
249.6000,-0.47945,352.118
249.5000,-0.470497,352.194
249.4000,-0.449729,352.284
249.3000,-0.371523,352.386
249.2000,-0.329049,352.489
249.1000,-0.42922,352.585
249.0000,-0.492336,352.673
248.9000,-0.503756,352.76
248.8000,-0.510425,352.862
248.7000,-0.510664,352.966
248.6000,-0.597408,353.062
248.5000,-0.657094,353.155
248.4000,-0.658552,353.244
248.3000,-0.597127,353.327
248.2000,-0.544517,353.417
248.1000,-0.615473,353.511
248.0000,-0.691892,353.596
247.9000,-0.714654,353.691
247.8000,-0.655552,353.79
247.7000,-0.548104,353.89
247.6000,-0.535402,354.005
247.5000,-0.554031,354.118
247.4000,-0.662956,354.211
247.3000,-0.644122,354.3
247.2000,-0.653654,354.394
247.1000,-0.644541,354.48
247.0000,-0.649773,354.56
246.9000,-0.637903,354.651
246.8000,-0.629996,354.73
246.7000,-0.567987,354.804
246.6000,-0.556132,354.879
246.5000,-0.561915,354.972
246.4000,-0.600257,355.056
246.3000,-0.653905,355.138
246.2000,-0.67216,355.231
246.1000,-0.707117,355.331
246.0000,-0.753875,355.428
245.9000,-0.79553,355.534
245.8000,-0.768784,355.658
245.7000,-0.725462,355.791
245.6000,-0.642811,355.921
245.5000,-0.534057,356.051
245.4000,-0.47983,356.173
245.3000,-0.421292,356.287
245.2000,-0.388047,356.412
245.1000,-0.303188,356.54
245.0000,-0.273362,356.658
244.9000,-0.2795,356.757
244.8000,-0.351901,356.845
244.7000,-0.369159,356.946
244.6000,-0.361055,357.056
244.5000,-0.326271,357.176
244.4000,-0.385416,357.272
244.3000,-0.472113,357.353
244.2000,-0.500382,357.433
244.1000,-0.511741,357.533
244.0000,-0.365115,357.651
243.9000,-0.3324,357.76
243.8000,-0.275085,357.873
243.7000,-0.30656,357.98
243.6000,-0.284503,358.086
243.5000,-0.251117,358.201
243.4000,-0.229813,358.329
243.3000,-0.271234,358.447
243.2000,-0.314621,358.556
243.1000,-0.350716,358.668
243.0000,-0.503627,358.773
242.9000,-0.548012,358.88
242.8000,-0.587399,358.992
242.7000,-0.722985,359.099
242.6000,-0.741628,359.199
242.5000,-0.699171,359.298
242.4000,-0.636653,359.412
242.3000,-0.646009,359.527
242.2000,-0.568476,359.65
242.1000,-0.428953,359.774
242.0000,-0.425124,359.888
241.9000,-0.384852,360.006
241.8000,-0.404505,360.127
241.7000,-0.41032,360.256
241.6000,-0.409767,360.381
241.5000,-0.476864,360.504
241.4000,-0.502812,360.628
241.3000,-0.551857,360.759
241.2000,-0.630127,360.888
241.1000,-0.621684,361.025
241.0000,-0.553973,361.17
240.9000,-0.594491,361.314
240.8000,-0.61021,361.456
240.7000,-0.573591,361.596
240.6000,-0.500957,361.739
240.5000,-0.480896,361.881
240.4000,-0.470778,362.024
240.3000,-0.440753,362.173
240.2000,-0.503019,362.319
240.1000,-0.410861,362.468
240.0000,-0.403325,362.611
239.9000,-0.362608,362.767
239.8000,-0.371646,362.926
239.7000,-0.376385,363.086
239.6000,-0.380426,363.248
239.5000,-0.399072,363.403
239.4000,-0.372909,363.552
239.3000,-0.352438,363.705
239.2000,-0.364732,363.861
239.1000,-0.473238,364.014
239.0000,-0.530356,364.163
238.9000,-0.601358,364.311
238.8000,-0.498079,364.467
238.7000,-0.435597,364.633
238.6000,-0.378087,364.796
238.5000,-0.39911,364.956
238.4000,-0.506646,365.113
238.3000,-0.529449,365.271
238.2000,-0.577001,365.426
238.1000,-0.635467,365.587
238.0000,-0.749083,365.746
237.9000,-0.844615,365.9
237.8000,-0.798829,366.057
237.7000,-0.793005,366.214
237.6000,-0.833128,366.373
237.5000,-0.815775,366.54
237.4000,-0.702627,366.714
237.3000,-0.62705,366.889
237.2000,-0.518543,367.068
237.1000,-0.555595,367.239
237.0000,-0.691462,367.408
236.9000,-0.848567,367.583
236.8000,-0.84544,367.762
236.7000,-0.770565,367.941
236.6000,-0.875632,368.105
236.5000,-0.861872,368.28
236.4000,-0.903232,368.454
236.3000,-0.845096,368.638
236.2000,-0.773448,368.824
236.1000,-0.67436,369.007
236.0000,-0.588171,369.193
235.9000,-0.626697,369.374
235.8000,-0.621187,369.565
235.7000,-0.628498,369.755
235.6000,-0.586389,369.939
235.5000,-0.598648,370.118
235.4000,-0.640044,370.302
235.3000,-0.695205,370.488
235.2000,-0.756843,370.682
235.1000,-0.745896,370.88
235.0000,-0.719162,371.081
234.9000,-0.679833,371.276
234.8000,-0.66327,371.473
234.7000,-0.702904,371.673
234.6000,-0.742003,371.866
234.5000,-0.735191,372.066
234.4000,-0.738374,372.267
234.3000,-0.713195,372.464
234.2000,-0.628138,372.669
234.1000,-0.566621,372.883
234.0000,-0.617353,373.087
233.9000,-0.65048,373.292
233.8000,-0.648351,373.507
233.7000,-0.641967,373.714
233.6000,-0.507049,373.922
233.5000,-0.452418,374.131
233.4000,-0.529706,374.329
233.3000,-0.609244,374.522
233.2000,-0.543476,374.728
233.1000,-0.444435,374.936
233.0000,-0.455235,375.141
232.9000,-0.4263,375.347
232.8000,-0.3974,375.568
232.7000,-0.500779,375.786
232.6000,-0.583554,376.009
232.5000,-0.615387,376.234
232.4000,-0.617212,376.448
232.3000,-0.728848,376.663
232.2000,-0.710972,376.873
232.1000,-0.693921,377.085
232.0000,-0.759754,377.287
231.9000,-0.726455,377.483
231.8000,-0.571029,377.679
231.7000,-0.40164,377.884
231.6000,-0.379097,378.093
231.5000,-0.357052,378.294
231.4000,-0.438795,378.499
231.3000,-0.42568,378.707
231.2000,-0.446666,378.919
231.1000,-0.499113,379.128
231.0000,-0.646265,379.34
230.9000,-0.784601,379.552
230.8000,-0.816922,379.753
230.7000,-0.857566,379.967
230.6000,-0.860058,380.182
230.5000,-0.875519,380.407
230.4000,-0.852707,380.627
230.3000,-0.856728,380.855
230.2000,-0.852835,381.083
230.1000,-0.765924,381.317
230.0000,-0.761465,381.543
229.9000,-0.826781,381.764
229.8000,-0.808373,381.993
229.7000,-0.721715,382.206
229.6000,-0.733899,382.42
229.5000,-0.672427,382.628
229.4000,-0.560697,382.829
229.3000,-0.592103,383.027
229.2000,-0.607616,383.225
229.1000,-0.614908,383.422
229.0000,-0.555233,383.62
228.9000,-0.537885,383.825
228.8000,-0.409484,384.033
228.7000,-0.307957,384.252
228.6000,-0.409979,384.472
228.5000,-0.44998,384.692
228.4000,-0.405912,384.935
228.3000,-0.280713,385.184
228.2000,-0.113007,385.437
228.1000,-0.105237,385.696
228.0000,-0.158178,385.957
227.9000,-0.394249,386.205
227.8000,-0.4817,386.452
227.7000,-0.454237,386.713
227.6000,-0.516811,386.963
227.5000,-0.528949,387.212
227.4000,-0.677754,387.461
227.3000,-0.753841,387.712
227.2000,-0.895364,387.954
227.1000,-0.911969,388.198
227.0000,-0.801046,388.452
226.9000,-0.872734,388.69
226.8000,-0.889928,388.933
226.7000,-1.12006,389.167
226.6000,-1.24284,389.401
226.5000,-1.3034,389.63
226.4000,-1.34837,389.857
226.3000,-1.3415,390.089
226.2000,-1.45782,390.33
226.1000,-1.39208,390.578
226.0000,-1.36011,390.819
225.9000,-1.12422,391.063
225.8000,-0.896765,391.308
225.7000,-0.859073,391.553
225.6000,-0.907086,391.796
225.5000,-0.906998,392.039
225.4000,-0.782292,392.277
225.3000,-0.780069,392.518
225.2000,-0.787444,392.758
225.1000,-0.847593,393.004
225.0000,-1.00205,393.242
224.9000,-1.01015,393.489
224.8000,-0.875467,393.734
224.7000,-0.711297,393.98
224.6000,-0.714269,394.221
224.5000,-0.701864,394.461
224.4000,-0.718505,394.697
224.3000,-0.762106,394.935
224.2000,-0.751453,395.174
224.1000,-0.801281,395.409
224.0000,-0.91615,395.645
223.9000,-1.03364,395.88
223.8000,-1.06349,396.119
223.7000,-1.05222,396.366
223.6000,-0.993467,396.61
223.5000,-0.997967,396.853
223.4000,-0.953861,397.093
223.3000,-0.940328,397.329
223.2000,-0.985563,397.566
223.1000,-0.882509,397.805
223.0000,-0.973172,398.044
222.9000,-1.04341,398.28
222.8000,-1.23116,398.508
222.7000,-1.14432,398.744
222.6000,-1.10187,398.979
222.5000,-1.12766,399.217
222.4000,-0.944762,399.449
222.3000,-0.918231,399.682
222.2000,-0.865839,399.914
222.1000,-0.78308,400.144
222.0000,-0.634075,400.373
221.9000,-0.746809,400.587
221.8000,-0.89413,400.803
221.7000,-0.918266,401.03
221.6000,-0.90909,401.26
221.5000,-0.796039,401.498
221.4000,-0.689381,401.726
221.3000,-0.681775,401.953
221.2000,-0.691572,402.182
221.1000,-0.662938,402.419
221.0000,-0.579174,402.656
220.9000,-0.450561,402.889
220.8000,-0.36542,403.123
220.7000,-0.403487,403.341
220.6000,-0.555628,403.563
220.5000,-0.637272,403.79
220.4000,-0.666759,404.016
220.3000,-0.534652,404.249
220.2000,-0.386537,404.489
220.1000,-0.427134,404.722
220.0000,-0.601337,404.95
219.9000,-0.688129,405.187
219.8000,-0.587026,405.422
219.7000,-0.489562,405.659
219.6000,-0.466314,405.886
219.5000,-0.444091,406.119
219.4000,-0.593459,406.348
219.3000,-0.681498,406.571
219.2000,-0.583869,406.802
219.1000,-0.357702,407.035
219.0000,-0.422464,407.266
218.9000,-0.58615,407.489
218.8000,-0.64789,407.719
218.7000,-0.626028,407.952
218.6000,-0.664823,408.178
218.5000,-0.618756,408.405
218.4000,-0.592234,408.633
218.3000,-0.614258,408.86
218.2000,-0.690864,409.084
218.1000,-0.5571,409.317
218.0000,-0.342923,409.555
217.9000,-0.233366,409.787
217.8000,-0.236808,410.011
217.7000,-0.158268,410.245
217.6000,-0.207143,410.474
217.5000,-0.250847,410.709
217.4000,-0.261954,410.94
217.3000,-0.281882,411.17
217.2000,-0.429493,411.399
217.1000,-0.610699,411.624
217.0000,-0.748064,411.848
216.9000,-0.883961,412.075
216.8000,-0.887497,412.305
216.7000,-0.891569,412.527
216.6000,-0.90164,412.758
216.5000,-0.91441,412.987
216.4000,-0.87365,413.217
216.3000,-0.89538,413.44
216.2000,-0.745773,413.677
216.1000,-0.577426,413.916
216.0000,-0.370311,414.152
215.9000,-0.433488,414.384
215.8000,-0.435588,414.614
215.7000,-0.477862,414.85
215.6000,-0.428433,415.09
215.5000,-0.41933,415.33
215.4000,-0.438919,415.571
215.3000,-0.501643,415.804
215.2000,-0.597764,416.04
215.1000,-0.59922,416.286
215.0000,-0.517027,416.54
214.9000,-0.408605,416.791
214.8000,-0.445165,417.036
214.7000,-0.546202,417.281
214.6000,-0.568743,417.526
214.5000,-0.61747,417.775
214.4000,-0.727043,418.023
214.3000,-0.866051,418.267
214.2000,-1.03429,418.506
214.1000,-1.16479,418.747
214.0000,-1.2513,418.99
213.9000,-1.08645,419.244
213.8000,-0.975711,419.499
213.7000,-0.827181,419.756
213.6000,-0.558625,420.021
213.5000,-0.397463,420.287
213.4000,-0.20193,420.554
213.3000,-0.131078,420.821
213.2000,0.0501917,421.092
213.1000,0.0846183,421.363
213.0000,0.14881,421.636
212.9000,0.14873,421.91
212.8000,0.0381157,422.176
212.7000,-0.147366,422.435
212.6000,-0.205196,422.702
212.5000,-0.236376,422.972
212.4000,-0.283251,423.243
212.3000,-0.423309,423.508
212.2000,-0.606623,423.773
212.1000,-0.622926,424.043
212.0000,-0.705984,424.32
211.9000,-0.658393,424.606
211.8000,-0.599729,424.89
211.7000,-0.599755,425.169
211.6000,-0.606676,425.452
211.5000,-0.603316,425.733
211.4000,-0.489735,426.026
211.3000,-0.536612,426.316
211.2000,-0.387217,426.606
211.1000,-0.277039,426.897
211.0000,-0.352094,427.188
210.9000,-0.354463,427.489
210.8000,-0.185167,427.792
210.7000,-0.136201,428.104
210.6000,-0.204484,428.406
210.5000,-0.149062,428.722
210.4000,-0.106962,429.042
210.3000,-0.143918,429.363
210.2000,-0.0370411,429.683
210.1000,-0.00261659,430.005
210.0000,-0.0220291,430.327
209.9000,-0.0427723,430.649
209.8000,-0.0775412,430.968
209.7000,-0.0259536,431.291
209.6000,0.0210889,431.611
209.5000,-0.111655,431.93
209.4000,-0.102786,432.257
209.3000,-0.170347,432.58
209.2000,-0.238741,432.908
209.1000,-0.322499,433.234
209.0000,-0.116527,433.57
208.9000,-0.0191141,433.907
208.8000,0.0915138,434.24
208.7000,0.179972,434.572
208.6000,0.235387,434.912
208.5000,0.309256,435.256
208.4000,0.552166,435.599
208.3000,0.635282,435.946
208.2000,0.438041,436.285
208.1000,0.348084,436.631
208.0000,0.175831,436.975
207.9000,0.0480875,437.321
207.8000,-0.0125543,437.669
207.7000,0.103693,438.018
207.6000,0.103383,438.365
207.5000,-0.0046146,438.71
207.4000,-0.109188,439.054
207.3000,-0.133566,439.397
207.2000,0.00018486,439.748
207.1000,0.0709253,440.099
207.0000,0.182844,440.451
206.9000,0.136442,440.804
206.8000,0.0941431,441.155
206.7000,0.0849774,441.511
206.6000,0.211126,441.87
206.5000,0.233903,442.23
206.4000,0.14887,442.588
206.3000,-0.0834209,442.944
206.2000,-0.333005,443.297
206.1000,-0.684225,443.644
206.0000,-0.862244,444.001
205.9000,-0.939406,444.36
205.8000,-0.875151,444.728
205.7000,-0.829246,445.097
205.6000,-0.562971,445.476
205.5000,-0.620632,445.849
205.4000,-0.738567,446.215
205.3000,-0.504725,446.601
205.2000,-0.346367,446.984
205.1000,-0.293009,447.37
205.0000,-0.283176,447.758
204.9000,-0.374913,448.142
204.8000,-0.758358,448.521
204.7000,-0.982557,448.906
204.6000,-0.829119,449.305
204.5000,-0.497544,449.715
204.4000,-0.495363,450.113
204.3000,-0.578643,450.512
204.2000,-0.577069,450.912
204.1000,-0.637709,451.309
204.0000,-0.634288,451.709
203.9000,-0.569156,452.111
203.8000,-0.499694,452.52
203.7000,-0.829774,452.916
203.6000,-1.00227,453.322
203.5000,-1.12176,453.728
203.4000,-1.30074,454.141
203.3000,-1.19707,454.567
203.2000,-1.06095,454.997
203.1000,-0.839064,455.434
203.0000,-0.605565,455.877
202.9000,-0.356692,456.32
202.8000,-0.317381,456.758
202.7000,-0.122136,457.206
202.6000,0.185397,457.659
202.5000,0.10791,458.093
202.4000,-0.0297091,458.53
202.3000,0.0422805,458.981
202.2000,0.12276,459.429
202.1000,0.1198,459.878
202.0000,0.173952,460.337
201.9000,0.0709444,460.796
201.8000,-0.192096,461.257
201.7000,-0.163174,461.736
201.6000,-0.134,462.225
201.5000,-0.0391826,462.717
201.4000,-0.195265,463.209
201.3000,-0.257963,463.711
201.2000,-0.347523,464.221
201.1000,-0.357892,464.736
201.0000,-0.305753,465.255
200.9000,-0.295835,465.783
200.8000,-0.170644,466.322
200.7000,-0.220512,466.865
200.6000,-0.203402,467.419
200.5000,-0.122532,467.989
200.4000,-0.0994421,468.566
200.3000,0.0369844,469.159
200.2000,0.127171,469.762
200.1000,0.410166,470.374
200.0000,0.432592,470.983
199.9000,0.447019,471.594
199.8000,0.410414,472.203
199.7000,0.256063,472.797
199.6000,0.353668,473.4
199.5000,0.159287,473.998
199.4000,0.415828,474.607
199.3000,0.610967,475.219
199.2000,0.795817,475.832
199.1000,0.821378,476.452
199.0000,1.07782,477.082
198.9000,1.10108,477.72
198.8000,1.01093,478.367
198.7000,1.1863,479.037
198.6000,1.13326,479.708
198.5000,1.08932,480.397
198.4000,0.97275,481.094
198.3000,0.736797,481.792
198.2000,0.572219,482.513
198.1000,0.370163,483.248
198.0000,0.588426,484.018
197.9000,0.589729,484.789
197.8000,0.680303,485.571
197.7000,0.394453,486.349
197.6000,-0.105432,487.123
197.5000,-0.369449,487.905
197.4000,-0.519515,488.676
197.3000,-0.494497,489.427
197.2000,-0.548824,490.137
197.1000,-0.547137,490.814
197.0000,-0.984176,491.452
196.9000,-1.24628,492.075
196.8000,-0.793193,492.712
196.7000,-0.184661,493.36
196.6000,-0.147039,494.005
196.5000,-0.219893,494.673
196.4000,-0.192286,495.39
196.3000,-0.453768,496.145
196.2000,-0.474909,496.963
196.1000,-0.12729,497.845
196.0000,0.0514768,498.789
195.9000,0.0377425,499.8
195.8000,0.103445,500.902
195.7000,0.0679553,502.105
195.6000,-0.383104,503.403
195.5000,-0.380565,504.827
195.4000,-0.410756,506.341
195.3000,-0.384207,507.916
195.2000,-0.754146,509.507
195.1000,-1.0849,511.091
195.0000,-1.347,512.607
194.9000,-1.38073,514.004
194.8000,-1.13325,515.25
194.7000,-1.10778,516.316
194.6000,-1.15206,517.248
194.5000,-1.16412,518.079
194.4000,-1.27061,518.85
194.3000,-1.24186,519.599
194.2000,-1.08217,520.397
194.1000,-0.822178,521.313
194.0000,-0.306749,522.407
193.9000,0.416898,523.721
193.8000,0.750627,525.243
193.7000,1.41458,527.042
193.6000,1.82925,529.129
193.5000,1.9496,531.529
193.4000,1.89074,534.284
193.3000,2.38626,537.426
193.2000,2.29852,540.884
193.1000,1.47688,544.587
193.0000,1.38057,548.497
192.9000,1.37994,552.483
192.8000,1.2773,556.385
192.7000,1.50791,560.065
192.6000,1.43246,563.305
192.5000,0.570494,565.976
192.4000,-0.138793,568.119
192.3000,0.200325,569.838
192.2000,-0.0532584,571.179
192.1000,-0.188316,572.253
192.0000,-0.27195,573.218
191.9000,-0.452402,574.242
191.8000,-0.615202,575.573
191.7000,-0.346163,577.432
191.6000,0.0179515,579.872
191.5000,-0.0516523,582.902
191.4000,0.443313,586.551
191.3000,0.377837,590.849
191.2000,-0.432677,595.837
191.1000,-0.871038,601.535
191.0000,-1.47838,607.831
190.9000,-0.951441,614.669
190.8000,-0.55173,621.899
190.7000,-0.146007,629.366
190.6000,0.174508,636.91
190.5000,-0.0691777,644.273
190.4000,-0.234723,651.154
190.3000,-1.56476,657.292
190.2000,-1.37267,662.748
190.1000,-0.971409,667.535
190.0000,-0.200724,671.759

##### Extended Information
[Comments]
Sample name,cal_0.8uM
Comment
User
Division
Company,CSIR-IMTECH

[Detailed Information]
Creation date,4/9/2024 3:44 PM

Data array type,Linear data array * 2
Horizontal axis,Wavelength [nm]
Vertical axis(1),CD [mdeg]
Vertical axis(2),HT [V]
Start,350 nm
End,190 nm
Data interval,0.1 nm
Data points,1601    

[Measurement Information]
Instrument Name,JASCO CD
Model Name,J-815
Serial No.,B063061168

Accessory,PTC-423S
Accessory S/N,C013945-01
  Temperature,37.56 C
  Control Sonsor,Cell
  Monitor Sensor,Cell
  Start Mode,Start immediately
  Cell Length,10 mm

Measurement date,4/9/2024 3:43 PM

Photometric Mode,CD, HT
Measure Range,350 - 190 nm
Data pitch,0.1 nm
Sensitivity,Standard
D.I.T.,1 sec
Bandwidth,1.00 nm
Start Mode,Immediately
Scanning Speed,50 nm/min
Baseline Correction,None
Shutter Control,Auto
CD Detector,PMT
PMT Voltage,Auto
Accumulations,3
Concentration,0.8 umol/L

