TITLE,cal_0.8uM
DATA TYPE,
ORIGIN,JASCO
OWNER,
DATE,24/04/09
TIME,15:45:46
SPECTROMETER/DATA SYSTEM,
LOCALE,1033
RESOLUTION,
DELTAX,-0.1
XUNITS,NANOMETERS
YUNITS,Mol. Ellip.
Y2UNITS,HT [V]
FIRSTX,  350.0000
LASTX,  190.0000
NPOINTS,    1601
FIRSTY,-132131.81250
MAXY,2982827.75000
MINY,-1955951.87500
XYDATA
350.0000,-132132,488.229
349.9000,-263319,487.609
349.8000,-583412,486.682
349.7000,-742757,485.755
349.6000,-677327,485.1
349.5000,-536459,484.533
349.4000,-399999,483.668
349.3000,-317765,483.056
349.2000,-107369,482.53
349.1000,-118795,481.674
349.0000,-176374,481.034
348.9000,-376290,480.462
348.8000,-665480,479.582
348.7000,-1.0692E+006,478.682
348.6000,-1.34064E+006,478.026
348.5000,-1.36428E+006,477.456
348.4000,-1.45263E+006,476.55
348.3000,-1.5142E+006,475.878
348.2000,-1.13852E+006,475.304
348.1000,-775780,474.448
348.0000,-735885,473.804
347.9000,-434693,473.25
347.8000,-362494,472.406
347.7000,-84914.4,471.549
347.6000,157644,470.943
347.5000,503270,470.441
347.4000,794696,469.648
347.3000,880417,469.048
347.2000,1.05593E+006,468.534
347.1000,1.17412E+006,467.742
347.0000,1.50096E+006,467.162
346.9000,1.45949E+006,466.65
346.8000,1.51476E+006,465.859
346.7000,1.42586E+006,465.056
346.6000,1.17778E+006,464.453
346.5000,855450,463.667
346.4000,579078,462.872
346.3000,407425,462.269
346.2000,496138,461.482
346.1000,307540,460.673
346.0000,347582,460.081
345.9000,253005,459.571
345.8000,323836,458.781
345.7000,337943,458.194
345.6000,360040,457.687
345.5000,499740,456.95
345.4000,329308,456.405
345.3000,307575,455.949
345.2000,346528,455.229
345.1000,280330,454.499
345.0000,366451,453.962
344.9000,216767,453.27
344.8000,227882,452.57
344.7000,53042.4,452.028
344.6000,-159906,451.347
344.5000,-20831.3,450.67
344.4000,-235135,450.164
344.3000,-414485,449.477
344.2000,-566146,448.776
344.1000,-703814,448.244
344.0000,-514956,447.585
343.9000,-410677,446.915
343.8000,-316017,446.419
343.7000,-322075,445.974
343.6000,-367384,445.281
343.5000,-343201,444.783
343.4000,-623379,444.358
343.3000,-673995,443.71
343.2000,-788472,443.221
343.1000,-1.05291E+006,442.788
343.0000,-1.24072E+006,442.151
342.9000,-1.35999E+006,441.504
342.8000,-1.40087E+006,441.03
342.7000,-1.35266E+006,440.415
342.6000,-1.28932E+006,439.797
342.5000,-1.37984E+006,439.335
342.4000,-1.36451E+006,438.755
342.3000,-1.17504E+006,438.173
342.2000,-695593,437.737
342.1000,-125590,437.176
342.0000,-46566.3,436.596
341.9000,-16915,436.179
341.8000,-60139.8,435.597
341.7000,23443.7,435.007
341.6000,123725,434.563
341.5000,150901,434.008
341.4000,-83116,433.443
341.3000,-483067,433.016
341.2000,-572428,432.429
341.1000,-462554,431.834
341.0000,-219623,431.404
340.9000,116082,430.867
340.8000,80111.2,430.313
340.7000,52147.8,429.88
340.6000,187727,429.331
340.5000,300783,428.778
340.4000,367800,428.382
340.3000,450177,427.859
340.2000,495604,427.326
340.1000,517863,426.93
340.0000,726001,426.432
339.9000,864174,425.928
339.8000,837209,425.543
339.7000,844528,425.057
339.6000,805921,424.569
339.5000,905903,424.231
339.4000,844612,423.756
339.3000,670416,423.262
339.2000,522249,422.734
339.1000,509955,422.27
339.0000,543381,421.798
338.9000,534519,421.251
338.8000,569763,420.748
338.7000,497138,420.232
338.6000,315123,419.681
338.5000,224773,419.199
338.4000,309711,418.836
338.3000,167998,418.359
338.2000,57300.5,417.872
338.1000,-182176,417.517
338.0000,-269226,417.072
337.9000,-317379,416.621
337.8000,-326128,416.3
337.7000,-451711,415.894
337.6000,-661954,415.478
337.5000,-744554,415.177
337.4000,-774246,414.786
337.3000,-720587,414.386
337.2000,-708401,413.924
337.1000,-638730,413.516
337.0000,-698882,413.094
336.9000,-634391,412.642
336.8000,-618760,412.235
336.7000,-593186,411.823
336.6000,-576559,411.355
336.5000,-432718,410.929
336.4000,-416928,410.627
336.3000,-417819,410.219
336.2000,-438933,409.803
336.1000,-361651,409.496
336.0000,-213411,409.106
335.9000,-17221.2,408.7
335.8000,153831,408.265
335.7000,194931,407.879
335.6000,-54331.7,407.478
335.5000,-178282,407.07
335.4000,-224696,406.712
335.3000,-183880,406.347
335.2000,-168508,405.949
335.1000,-192922,405.594
335.0000,-239872,405.348
334.9000,-308467,404.995
334.8000,-101359,404.635
334.7000,-64094.6,404.244
334.6000,-67421.4,403.901
334.5000,-69509.7,403.554
334.4000,-163785,403.149
334.3000,-220412,402.78
334.2000,-190050,402.405
334.1000,-15865.2,402.01
334.0000,45047.5,401.668
333.9000,121472,401.417
333.8000,230285,401.073
333.7000,198533,400.712
333.6000,134623,400.32
333.5000,202337,399.986
333.4000,215259,399.645
333.3000,20792.1,399.28
333.2000,-142865,398.96
333.1000,-296686,398.633
333.0000,-256483,398.291
332.9000,-36680.4,397.992
332.8000,106841,397.65
332.7000,207273,397.351
332.6000,157742,397.042
332.5000,72024.2,396.705
332.4000,-33895.1,396.406
332.3000,-51062.9,396.104
332.2000,-94300.4,395.749
332.1000,-252700,395.419
332.0000,-381362,395.077
331.9000,-422243,394.784
331.8000,-516870,394.487
331.7000,-485839,394.143
331.6000,-386757,393.833
331.5000,-329010,393.405
331.4000,-223968,393.073
331.3000,-178325,392.79
331.2000,-75683.5,392.473
331.1000,57971.6,392.193
331.0000,89289.9,391.904
330.9000,137647,391.613
330.8000,215347,391.359
330.7000,254400,391.058
330.6000,308150,390.789
330.5000,403585,390.517
330.4000,350363,390.223
330.3000,148866,389.958
330.2000,79148.5,389.578
330.1000,137561,389.263
330.0000,180124,388.981
329.9000,210754,388.683
329.8000,169279,388.423
329.7000,142853,388.074
329.6000,145662,387.798
329.5000,157496,387.554
329.4000,-30522.1,387.261
329.3000,-207519,387.006
329.2000,-242403,386.65
329.1000,-252314,386.37
329.0000,-162440,386.128
328.9000,-87407.6,385.854
328.8000,-141345,385.6
328.7000,-201544,385.246
328.6000,-111715,384.983
328.5000,112604,384.769
328.4000,237292,384.514
328.3000,151386,384.286
328.2000,-8881.01,383.973
328.1000,-204240,383.729
328.0000,-317618,383.519
327.9000,-389515,383.258
327.8000,-479071,383.029
327.7000,-574175,382.764
327.6000,-745404,382.575
327.5000,-945918,382.422
327.4000,-938555,382.155
327.3000,-790454,381.908
327.2000,-714567,381.597
327.1000,-575919,381.372
327.0000,-543958,381.183
326.9000,-549855,380.903
326.8000,-532388,380.624
326.7000,-465098,380.294
326.6000,-325941,380.09
326.5000,-436983,379.943
326.4000,-476173,379.692
326.3000,-529712,379.451
326.2000,-633902,379.183
326.1000,-638482,378.993
326.0000,-676159,378.689
325.9000,-554876,378.418
325.8000,-594453,378.156
325.7000,-597133,377.899
325.6000,-487514,377.75
325.5000,-489649,377.451
325.4000,-489107,377.162
325.3000,-258125,376.884
325.2000,-157670,376.713
325.1000,-157752,376.595
325.0000,3196.31,376.326
324.9000,192575,376.049
324.8000,233374,375.755
324.7000,150928,375.604
324.6000,227723,375.531
324.5000,213010,375.272
324.4000,94487.3,375.001
324.3000,15668.9,374.747
324.2000,-145859,374.598
324.1000,-296579,374.327
324.0000,-441182,374.052
323.9000,-453665,373.773
323.8000,-459655,373.521
323.7000,-479292,373.394
323.6000,-481788,373.131
323.5000,-364765,372.848
323.4000,-385006,372.57
323.3000,-458541,372.423
323.2000,-451345,372.338
323.1000,-448173,372.076
323.0000,-499481,371.784
322.9000,-538970,371.496
322.8000,-600106,371.349
322.7000,-723824,371.09
322.6000,-767929,370.807
322.5000,-774923,370.522
322.4000,-768970,370.239
322.3000,-643446,370.074
322.2000,-508619,369.794
322.1000,-421222,369.486
322.0000,-299251,369.184
321.9000,-169060,369.015
321.8000,-36598.6,368.737
321.7000,79058.8,368.443
321.6000,165395,368.134
321.5000,268462,367.849
321.4000,276492,367.697
321.3000,202951,367.475
321.2000,105453,367.242
321.1000,-30138,367.013
321.0000,-129340,366.928
320.9000,-217222,366.767
320.8000,-369312,366.609
320.7000,-541659,366.458
320.6000,-772518,366.311
320.5000,-701450,366.277
320.4000,-587004,366.131
320.3000,-536292,365.969
320.2000,-537592,365.808
320.1000,-559932,365.751
320.0000,-466550,365.597
319.9000,-314631,365.424
319.8000,-206485,365.233
319.7000,-265242,365.027
319.6000,-392999,364.795
319.5000,-445124,364.621
319.4000,-384058,364.436
319.3000,-322815,364.226
319.2000,-320444,364.117
319.1000,-437332,363.917
319.0000,-494484,363.709
318.9000,-561628,363.498
318.8000,-587519,363.385
318.7000,-495178,363.17
318.6000,-516444,362.94
318.5000,-542141,362.74
318.4000,-525246,362.541
318.3000,-512913,362.318
318.2000,-486218,362.147
318.1000,-438250,361.977
318.0000,-418727,361.788
317.9000,-532156,361.704
317.8000,-522995,361.571
317.7000,-500968,361.421
317.6000,-510453,361.235
317.5000,-546095,361.138
317.4000,-575557,360.98
317.3000,-548119,360.815
317.2000,-569951,360.631
317.1000,-509384,360.447
317.0000,-627491,360.206
316.9000,-632010,360.002
316.8000,-701791,359.809
316.7000,-644590,359.62
316.6000,-588851,359.424
316.5000,-677088,359.262
316.4000,-778706,359.082
316.3000,-896383,358.9
316.2000,-825542,358.729
316.1000,-782496,358.607
316.0000,-723622,358.49
315.9000,-755568,358.334
315.8000,-789199,358.234
315.7000,-757284,358.068
315.6000,-692343,357.925
315.5000,-533880,357.767
315.4000,-424736,357.665
315.3000,-396099,357.468
315.2000,-355755,357.258
315.1000,-283553,357.072
315.0000,-301553,356.892
314.9000,-368322,356.709
314.8000,-362332,356.553
314.7000,-359275,356.387
314.6000,-398613,356.224
314.5000,-417390,356.074
314.4000,-412549,355.972
314.3000,-482519,355.836
314.2000,-601460,355.696
314.1000,-594758,355.517
314.0000,-532112,355.362
313.9000,-604304,355.201
313.8000,-525733,355.054
313.7000,-478246,354.842
313.6000,-526049,354.646
313.5000,-678163,354.452
313.4000,-608330,354.271
313.3000,-519394,354.097
313.2000,-520531,353.953
313.1000,-473491,353.802
313.0000,-538149,353.652
312.9000,-633347,353.511
312.8000,-620628,353.413
312.7000,-577703,353.29
312.6000,-591211,353.169
312.5000,-530926,353.008
312.4000,-501504,352.856
312.3000,-577085,352.678
312.2000,-606834,352.503
312.1000,-609790,352.275
312.0000,-646561,352.062
311.9000,-619919,351.86
311.8000,-633052,351.623
311.7000,-721119,351.439
311.6000,-895471,351.25
311.5000,-929968,351.101
311.4000,-874747,350.913
311.3000,-892731,350.793
311.2000,-866929,350.67
311.1000,-849984,350.569
311.0000,-822993,350.455
310.9000,-820295,350.356
310.8000,-718624,350.246
310.7000,-630669,350.147
310.6000,-675564,350.011
310.5000,-689936,349.896
310.4000,-707434,349.792
310.3000,-813889,349.7
310.2000,-871130,349.616
310.1000,-940536,349.546
310.0000,-950252,349.47
309.9000,-909583,349.407
309.8000,-880967,349.348
309.7000,-872365,349.26
309.6000,-866938,349.185
309.5000,-826287,349.069
309.4000,-777606,348.971
309.3000,-709927,348.83
309.2000,-606999,348.719
309.1000,-670228,348.548
309.0000,-672421,348.407
308.9000,-686673,348.283
308.8000,-654176,348.174
308.7000,-666550,348.072
308.6000,-740103,347.982
308.5000,-743116,347.882
308.4000,-728427,347.767
308.3000,-758628,347.697
308.2000,-785056,347.586
308.1000,-799037,347.502
308.0000,-827670,347.395
307.9000,-793647,347.307
307.8000,-681088,347.174
307.7000,-603301,347.073
307.6000,-637256,346.954
307.5000,-629958,346.793
307.4000,-591572,346.674
307.3000,-650428,346.549
307.2000,-720236,346.449
307.1000,-873279,346.314
307.0000,-981629,346.216
306.9000,-1.09829E+006,346.113
306.8000,-1.14047E+006,346.046
306.7000,-1.13368E+006,345.975
306.6000,-1.20384E+006,345.88
306.5000,-1.15728E+006,345.801
306.4000,-1.05049E+006,345.684
306.3000,-911782,345.599
306.2000,-791317,345.483
306.1000,-742971,345.38
306.0000,-741596,345.234
305.9000,-692795,345.13
305.8000,-610225,345.054
305.7000,-628734,344.939
305.6000,-675645,344.855
305.5000,-754191,344.769
305.4000,-802680,344.714
305.3000,-837601,344.616
305.2000,-854514,344.549
305.1000,-836290,344.47
305.0000,-898425,344.353
304.9000,-860124,344.277
304.8000,-915534,344.18
304.7000,-980463,344.092
304.6000,-948598,343.966
304.5000,-907227,343.867
304.4000,-872734,343.788
304.3000,-878344,343.681
304.2000,-871833,343.619
304.1000,-837190,343.559
304.0000,-824919,343.521
303.9000,-780279,343.441
303.8000,-856822,343.366
303.7000,-930617,343.32
303.6000,-960910,343.223
303.5000,-936706,343.16
303.4000,-896971,343.078
303.3000,-921829,342.966
303.2000,-986219,342.855
303.1000,-887930,342.77
303.0000,-787930,342.719
302.9000,-731356,342.625
302.8000,-679252,342.548
302.7000,-666163,342.484
302.6000,-730903,342.396
302.5000,-786280,342.348
302.4000,-743773,342.294
302.3000,-720731,342.205
302.2000,-752952,342.117
302.1000,-775951,342.027
302.0000,-861850,341.968
301.9000,-906912,341.88
301.8000,-946227,341.803
301.7000,-944860,341.741
301.6000,-1.03973E+006,341.648
301.5000,-1.0973E+006,341.597
301.4000,-1.15434E+006,341.542
301.3000,-1.10968E+006,341.468
301.2000,-988164,341.406
301.1000,-936424,341.347
301.0000,-877984,341.318
300.9000,-842074,341.245
300.8000,-776353,341.171
300.7000,-833753,341.107
300.6000,-783026,341.028
300.5000,-746783,340.963
300.4000,-783313,340.91
300.3000,-807147,340.835
300.2000,-835252,340.764
300.1000,-845825,340.71
300.0000,-847859,340.653
299.9000,-769113,340.608
299.8000,-689008,340.561
299.7000,-693664,340.497
299.6000,-767130,340.44
299.5000,-858404,340.378
299.4000,-883061,340.327
299.3000,-878819,340.257
299.2000,-854375,340.201
299.1000,-799783,340.16
299.0000,-830371,340.094
298.9000,-888143,340.045
298.8000,-854475,340.009
298.7000,-783570,339.954
298.6000,-730310,339.91
298.5000,-793329,339.859
298.4000,-816680,339.799
298.3000,-839594,339.744
298.2000,-864684,339.684
298.1000,-915898,339.622
298.0000,-988299,339.563
297.9000,-990860,339.515
297.8000,-1.04215E+006,339.446
297.7000,-1.09664E+006,339.391
297.6000,-1.1294E+006,339.349
297.5000,-1.24769E+006,339.281
297.4000,-1.32544E+006,339.235
297.3000,-1.29391E+006,339.199
297.2000,-1.20412E+006,339.139
297.1000,-1.17759E+006,339.09
297.0000,-1.11003E+006,339.043
296.9000,-996356,338.978
296.8000,-916963,338.927
296.7000,-853580,338.887
296.6000,-836664,338.855
296.5000,-885968,338.804
296.4000,-901687,338.766
296.3000,-948167,338.74
296.2000,-965042,338.698
296.1000,-951780,338.665
296.0000,-976340,338.639
295.9000,-999207,338.591
295.8000,-955374,338.528
295.7000,-833802,338.488
295.6000,-818339,338.444
295.5000,-822075,338.379
295.4000,-835649,338.307
295.3000,-849568,338.262
295.2000,-888737,338.203
295.1000,-833222,338.137
295.0000,-751204,338.103
294.9000,-769171,338.057
294.8000,-812894,337.991
294.7000,-824928,337.953
294.6000,-689125,337.928
294.5000,-694246,337.882
294.4000,-756246,337.844
294.3000,-799533,337.815
294.2000,-956898,337.765
294.1000,-1.09021E+006,337.725
294.0000,-1.1381E+006,337.7
293.9000,-1.12179E+006,337.655
293.8000,-1.14407E+006,337.625
293.7000,-1.16637E+006,337.601
293.6000,-1.13964E+006,337.553
293.5000,-1.13604E+006,337.496
293.4000,-1.07936E+006,337.47
293.3000,-1.0046E+006,337.427
293.2000,-895512,337.372
293.1000,-840485,337.349
293.0000,-872862,337.299
292.9000,-918264,337.242
292.8000,-932169,337.219
292.7000,-856471,337.197
292.6000,-906692,337.156
292.5000,-998947,337.098
292.4000,-1.10691E+006,337.063
292.3000,-1.20777E+006,337.013
292.2000,-1.25204E+006,336.962
292.1000,-1.28726E+006,336.937
292.0000,-1.3472E+006,336.893
291.9000,-1.42435E+006,336.832
291.8000,-1.44026E+006,336.781
291.7000,-1.41554E+006,336.762
291.6000,-1.41288E+006,336.724
291.5000,-1.36597E+006,336.679
291.4000,-1.3293E+006,336.656
291.3000,-1.28436E+006,336.612
291.2000,-1.16671E+006,336.554
291.1000,-1.12836E+006,336.494
291.0000,-1.00486E+006,336.457
290.9000,-873713,336.398
290.8000,-754531,336.314
290.7000,-685142,336.224
290.6000,-588025,336.124
290.5000,-564849,335.997
290.4000,-493317,335.863
290.3000,-477083,335.745
290.2000,-505033,335.6
290.1000,-628214,335.44
290.0000,-760109,335.292
289.9000,-758016,335.188
289.8000,-814611,335.09
289.7000,-872571,335.016
289.6000,-921449,334.98
289.5000,-996899,334.983
289.4000,-1.05204E+006,335.012
289.3000,-1.07493E+006,335.075
289.2000,-1.08459E+006,335.162
289.1000,-1.12161E+006,335.273
289.0000,-1.19493E+006,335.382
288.9000,-1.23086E+006,335.487
288.8000,-1.2475E+006,335.587
288.7000,-1.25071E+006,335.675
288.6000,-1.22896E+006,335.746
288.5000,-1.19383E+006,335.801
288.4000,-1.12179E+006,335.84
288.3000,-1.07083E+006,335.866
288.2000,-966664,335.872
288.1000,-862096,335.87
288.0000,-797465,335.853
287.9000,-725755,335.829
287.8000,-649946,335.812
287.7000,-581107,335.79
287.6000,-513783,335.769
287.5000,-418093,335.736
287.4000,-450776,335.715
287.3000,-532533,335.701
287.2000,-613476,335.685
287.1000,-650091,335.669
287.0000,-711449,335.629
286.9000,-799180,335.605
286.8000,-881060,335.589
286.7000,-1.01867E+006,335.572
286.6000,-1.09194E+006,335.543
286.5000,-1.03681E+006,335.534
286.4000,-1.0322E+006,335.529
286.3000,-1.0495E+006,335.525
286.2000,-1.09759E+006,335.519
286.1000,-1.13612E+006,335.511
286.0000,-1.12514E+006,335.516
285.9000,-1.09153E+006,335.51
285.8000,-1.00155E+006,335.512
285.7000,-918850,335.492
285.6000,-868945,335.469
285.5000,-784212,335.473
285.4000,-671352,335.474
285.3000,-646379,335.482
285.2000,-670785,335.458
285.1000,-656643,335.445
285.0000,-698639,335.452
284.9000,-793216,335.443
284.8000,-905928,335.443
284.7000,-996435,335.418
284.6000,-1.09785E+006,335.4
284.5000,-1.13224E+006,335.402
284.4000,-1.08694E+006,335.406
284.3000,-1.02448E+006,335.416
284.2000,-978470,335.4
284.1000,-919743,335.394
284.0000,-825413,335.379
283.9000,-687907,335.389
283.8000,-543936,335.404
283.7000,-455849,335.397
283.6000,-357360,335.393
283.5000,-330813,335.385
283.4000,-361191,335.385
283.3000,-373443,335.402
283.2000,-451738,335.417
283.1000,-563234,335.421
283.0000,-719492,335.408
282.9000,-832853,335.401
282.8000,-931336,335.392
282.7000,-1.00273E+006,335.405
282.6000,-1.06109E+006,335.419
282.5000,-1.17251E+006,335.418
282.4000,-1.19783E+006,335.411
282.3000,-1.13555E+006,335.407
282.2000,-1.16333E+006,335.407
282.1000,-1.15248E+006,335.426
282.0000,-1.15981E+006,335.441
281.9000,-1.18153E+006,335.44
281.8000,-1.28055E+006,335.433
281.7000,-1.28529E+006,335.426
281.6000,-1.32836E+006,335.426
281.5000,-1.42581E+006,335.428
281.4000,-1.50701E+006,335.451
281.3000,-1.57034E+006,335.458
281.2000,-1.57741E+006,335.46
281.1000,-1.6149E+006,335.462
281.0000,-1.64599E+006,335.465
280.9000,-1.54771E+006,335.474
280.8000,-1.35169E+006,335.479
280.7000,-1.19127E+006,335.483
280.6000,-1.09911E+006,335.492
280.5000,-981209,335.491
280.4000,-926638,335.494
280.3000,-854231,335.494
280.2000,-803224,335.491
280.1000,-789527,335.485
280.0000,-875622,335.476
279.9000,-969465,335.469
279.8000,-972094,335.451
279.7000,-981994,335.449
279.6000,-989392,335.445
279.5000,-1.02764E+006,335.441
279.4000,-1.05925E+006,335.443
279.3000,-993936,335.444
279.2000,-1.03128E+006,335.448
279.1000,-1.04913E+006,335.452
279.0000,-1.03213E+006,335.457
278.9000,-1.02575E+006,335.453
278.8000,-1.04207E+006,335.465
278.7000,-997632,335.486
278.6000,-937685,335.506
278.5000,-944152,335.525
278.4000,-893511,335.541
278.3000,-823531,335.56
278.2000,-806735,335.581
278.1000,-836010,335.595
278.0000,-777143,335.596
277.9000,-814220,335.584
277.8000,-918146,335.575
277.7000,-911123,335.572
277.6000,-913950,335.585
277.5000,-892573,335.6
277.4000,-865096,335.619
277.3000,-866603,335.638
277.2000,-872140,335.655
277.1000,-745920,335.683
277.0000,-538026,335.71
276.9000,-465815,335.733
276.8000,-433023,335.742
276.7000,-459636,335.743
276.6000,-527737,335.741
276.5000,-549403,335.743
276.4000,-520307,335.747
276.3000,-646479,335.747
276.2000,-741297,335.746
276.1000,-765639,335.751
276.0000,-790579,335.775
275.9000,-724604,335.806
275.8000,-691059,335.837
275.7000,-681464,335.863
275.6000,-734425,335.892
275.5000,-823462,335.917
275.4000,-899618,335.943
275.3000,-1.00528E+006,335.966
275.2000,-1.02225E+006,335.975
275.1000,-1.02817E+006,335.985
275.0000,-1.06883E+006,335.994
274.9000,-1.14897E+006,336.004
274.8000,-1.14228E+006,336.013
274.7000,-1.03409E+006,336.029
274.6000,-913273,336.046
274.5000,-779934,336.066
274.4000,-697659,336.087
274.3000,-700851,336.103
274.2000,-703103,336.113
274.1000,-670257,336.125
274.0000,-649625,336.137
273.9000,-683319,336.148
273.8000,-727709,336.159
273.7000,-771450,336.172
273.6000,-875575,336.18
273.5000,-1.01544E+006,336.191
273.4000,-1.09186E+006,336.205
273.3000,-1.2044E+006,336.223
273.2000,-1.24706E+006,336.244
273.1000,-1.3083E+006,336.266
273.0000,-1.3147E+006,336.288
272.9000,-1.32174E+006,336.307
272.8000,-1.31042E+006,336.323
272.7000,-1.19984E+006,336.341
272.6000,-1.12852E+006,336.359
272.5000,-930937,336.381
272.4000,-837340,336.4
272.3000,-681215,336.421
272.2000,-545660,336.446
272.1000,-503798,336.467
272.0000,-463596,336.492
271.9000,-472383,336.519
271.8000,-507086,336.54
271.7000,-544835,336.565
271.6000,-556757,336.589
271.5000,-562256,336.614
271.4000,-686271,336.632
271.3000,-749149,336.648
271.2000,-689304,336.668
271.1000,-670440,336.684
271.0000,-579708,336.694
270.9000,-552006,336.681
270.8000,-542279,336.666
270.7000,-630431,336.649
270.6000,-665384,336.63
270.5000,-684253,336.612
270.4000,-736717,336.596
270.3000,-799833,336.581
270.2000,-800701,336.576
270.1000,-829236,336.586
270.0000,-850207,336.607
269.9000,-861537,336.625
269.8000,-765222,336.652
269.7000,-741543,336.682
269.6000,-801846,336.712
269.5000,-874448,336.735
269.4000,-972511,336.742
269.3000,-1.15702E+006,336.745
269.2000,-1.19356E+006,336.754
269.1000,-1.19469E+006,336.77
269.0000,-1.19451E+006,336.785
268.9000,-1.16515E+006,336.807
268.8000,-1.09128E+006,336.825
268.7000,-1.03515E+006,336.855
268.6000,-1.03344E+006,336.895
268.5000,-974935,336.953
268.4000,-987890,337.009
268.3000,-984349,337.049
268.2000,-1.06953E+006,337.094
268.1000,-1.12882E+006,337.134
268.0000,-1.10674E+006,337.185
267.9000,-1.04672E+006,337.23
267.8000,-938320,337.28
267.7000,-840489,337.325
267.6000,-708413,337.377
267.5000,-630958,337.433
267.4000,-554825,337.473
267.3000,-500207,337.516
267.2000,-483448,337.547
267.1000,-430373,337.59
267.0000,-398812,337.633
266.9000,-382942,337.683
266.8000,-434569,337.722
266.7000,-513007,337.753
266.6000,-505745,337.806
266.5000,-585354,337.858
266.4000,-606166,337.923
266.3000,-721834,337.986
266.2000,-855379,338.049
266.1000,-967948,338.111
266.0000,-1.01806E+006,338.167
265.9000,-1.02334E+006,338.237
265.8000,-1.08802E+006,338.303
265.7000,-1.05816E+006,338.369
265.6000,-1.07266E+006,338.438
265.5000,-1.04589E+006,338.512
265.4000,-997647,338.566
265.3000,-922645,338.613
265.2000,-929293,338.663
265.1000,-944944,338.718
265.0000,-958165,338.782
264.9000,-1.0444E+006,338.853
264.8000,-1.06987E+006,338.908
264.7000,-1.03037E+006,338.961
264.6000,-1.09635E+006,339.021
264.5000,-1.12868E+006,339.094
264.4000,-1.08287E+006,339.174
264.3000,-1.01574E+006,339.245
264.2000,-1.03642E+006,339.312
264.1000,-961195,339.378
264.0000,-858895,339.45
263.9000,-774035,339.527
263.8000,-737244,339.591
263.7000,-674588,339.658
263.6000,-624088,339.733
263.5000,-611068,339.816
263.4000,-562351,339.91
263.3000,-540819,339.979
263.2000,-529895,340.046
263.1000,-500574,340.123
263.0000,-399829,340.208
262.9000,-340770,340.282
262.8000,-434174,340.355
262.7000,-517966,340.422
262.6000,-570484,340.48
262.5000,-544377,340.559
262.4000,-579677,340.639
262.3000,-718045,340.719
262.2000,-929537,340.788
262.1000,-986276,340.874
262.0000,-930195,340.947
261.9000,-869930,341.023
261.8000,-811462,341.107
261.7000,-731837,341.18
261.6000,-668271,341.25
261.5000,-527910,341.326
261.4000,-458276,341.407
261.3000,-449690,341.484
261.2000,-530502,341.57
261.1000,-543000,341.663
261.0000,-518998,341.758
260.9000,-563676,341.837
260.8000,-645968,341.922
260.7000,-774709,342.006
260.6000,-802019,342.08
260.5000,-838007,342.161
260.4000,-759401,342.247
260.3000,-729275,342.328
260.2000,-738624,342.386
260.1000,-650545,342.461
260.0000,-586598,342.547
259.9000,-441876,342.628
259.8000,-440244,342.72
259.7000,-436887,342.812
259.6000,-411397,342.889
259.5000,-433047,342.967
259.4000,-491913,343.055
259.3000,-607654,343.141
259.2000,-649971,343.232
259.1000,-660729,343.334
259.0000,-570892,343.426
258.9000,-518220,343.513
258.8000,-569054,343.61
258.7000,-600667,343.709
258.6000,-647203,343.816
258.5000,-669555,343.932
258.4000,-674164,344.032
258.3000,-732775,344.123
258.2000,-816917,344.219
258.1000,-869704,344.307
258.0000,-873596,344.399
257.9000,-855593,344.492
257.8000,-820214,344.571
257.7000,-800975,344.649
257.6000,-808653,344.739
257.5000,-880240,344.822
257.4000,-899555,344.912
257.3000,-876462,345.004
257.2000,-801348,345.102
257.1000,-828718,345.2
257.0000,-772271,345.304
256.9000,-741201,345.41
256.8000,-618577,345.506
256.7000,-577916,345.605
256.6000,-509731,345.695
256.5000,-469581,345.774
256.4000,-462512,345.858
256.3000,-471260,345.931
256.2000,-586436,346.001
256.1000,-675758,346.077
256.0000,-764781,346.145
255.9000,-752185,346.219
255.8000,-693115,346.29
255.7000,-647868,346.38
255.6000,-646720,346.474
255.5000,-589477,346.567
255.4000,-482414,346.677
255.3000,-426914,346.778
255.2000,-409796,346.889
255.1000,-478767,346.994
255.0000,-541791,347.104
254.9000,-573002,347.207
254.8000,-543448,347.312
254.7000,-535562,347.421
254.6000,-480262,347.52
254.5000,-509924,347.615
254.4000,-496550,347.705
254.3000,-451136,347.803
254.2000,-326747,347.9
254.1000,-367476,347.999
254.0000,-448255,348.088
253.9000,-467440,348.186
253.8000,-477221,348.274
253.7000,-394166,348.365
253.6000,-290404,348.45
253.5000,-193299,348.546
253.4000,-234213,348.643
253.3000,-279112,348.746
253.2000,-237255,348.842
253.1000,-273055,348.924
253.0000,-328406,349.002
252.9000,-368589,349.089
252.8000,-433347,349.171
252.7000,-377884,349.253
252.6000,-358787,349.331
252.5000,-344984,349.41
252.4000,-419758,349.482
252.3000,-461893,349.574
252.2000,-481097,349.659
252.1000,-576622,349.744
252.0000,-745353,349.833
251.9000,-948323,349.919
251.8000,-1.14299E+006,350.009
251.7000,-1.14656E+006,350.086
251.6000,-1.08697E+006,350.172
251.5000,-1.04809E+006,350.257
251.4000,-1.09757E+006,350.36
251.3000,-1.05992E+006,350.46
251.2000,-934077,350.56
251.1000,-763453,350.67
251.0000,-545893,350.775
250.9000,-513786,350.888
250.8000,-533480,351.001
250.7000,-561507,351.118
250.6000,-568850,351.219
250.5000,-564035,351.319
250.4000,-574109,351.429
250.3000,-654074,351.519
250.2000,-773006,351.609
250.1000,-843332,351.69
250.0000,-879086,351.769
249.9000,-812922,351.859
249.8000,-746526,351.946
249.7000,-641394,352.039
249.6000,-599313,352.118
249.5000,-588121,352.194
249.4000,-562161,352.284
249.3000,-464404,352.386
249.2000,-411311,352.489
249.1000,-536525,352.585
249.0000,-615420,352.673
248.9000,-629695,352.76
248.8000,-638031,352.862
248.7000,-638329,352.966
248.6000,-746760,353.062
248.5000,-821367,353.155
248.4000,-823190,353.244
248.3000,-746409,353.327
248.2000,-680647,353.417
248.1000,-769341,353.511
248.0000,-864865,353.596
247.9000,-893317,353.691
247.8000,-819440,353.79
247.7000,-685130,353.89
247.6000,-669252,354.005
247.5000,-692539,354.118
247.4000,-828696,354.211
247.3000,-805153,354.3
247.2000,-817068,354.394
247.1000,-805676,354.48
247.0000,-812216,354.56
246.9000,-797379,354.651
246.8000,-787495,354.73
246.7000,-709984,354.804
246.6000,-695165,354.879
246.5000,-702393,354.972
246.4000,-750322,355.056
246.3000,-817382,355.138
246.2000,-840200,355.231
246.1000,-883897,355.331
246.0000,-942344,355.428
245.9000,-994412,355.534
245.8000,-960980,355.658
245.7000,-906827,355.791
245.6000,-803514,355.921
245.5000,-667572,356.051
245.4000,-599787,356.173
245.3000,-526616,356.287
245.2000,-485059,356.412
245.1000,-378985,356.54
245.0000,-341703,356.658
244.9000,-349375,356.757
244.8000,-439876,356.845
244.7000,-461449,356.946
244.6000,-451319,357.056
244.5000,-407839,357.176
244.4000,-481770,357.272
244.3000,-590142,357.353
244.2000,-625478,357.433
244.1000,-639676,357.533
244.0000,-456393,357.651
243.9000,-415500,357.76
243.8000,-343857,357.873
243.7000,-383199,357.98
243.6000,-355628,358.086
243.5000,-313896,358.201
243.4000,-287266,358.329
243.3000,-339042,358.447
243.2000,-393276,358.556
243.1000,-438395,358.668
243.0000,-629534,358.773
242.9000,-685015,358.88
242.8000,-734249,358.992
242.7000,-903732,359.099
242.6000,-927035,359.199
242.5000,-873964,359.298
242.4000,-795816,359.412
242.3000,-807511,359.527
242.2000,-710595,359.65
242.1000,-536192,359.774
242.0000,-531405,359.888
241.9000,-481065,360.006
241.8000,-505631,360.127
241.7000,-512899,360.256
241.6000,-512209,360.381
241.5000,-596080,360.504
241.4000,-628515,360.628
241.3000,-689822,360.759
241.2000,-787659,360.888
241.1000,-777105,361.025
241.0000,-692466,361.17
240.9000,-743113,361.314
240.8000,-762763,361.456
240.7000,-716988,361.596
240.6000,-626197,361.739
240.5000,-601120,361.881
240.4000,-588473,362.024
240.3000,-550941,362.173
240.2000,-628774,362.319
240.1000,-513576,362.468
240.0000,-504157,362.611
239.9000,-453260,362.767
239.8000,-464557,362.926
239.7000,-470482,363.086
239.6000,-475533,363.248
239.5000,-498840,363.403
239.4000,-466137,363.552
239.3000,-440548,363.705
239.2000,-455915,363.861
239.1000,-591547,364.014
239.0000,-662945,364.163
238.9000,-751698,364.311
238.8000,-622599,364.467
238.7000,-544496,364.633
238.6000,-472608,364.796
238.5000,-498888,364.956
238.4000,-633307,365.113
238.3000,-661811,365.271
238.2000,-721252,365.426
238.1000,-794334,365.587
238.0000,-936353,365.746
237.9000,-1.05577E+006,365.9
237.8000,-998536,366.057
237.7000,-991257,366.214
237.6000,-1.04141E+006,366.373
237.5000,-1.01972E+006,366.54
237.4000,-878283,366.714
237.3000,-783813,366.889
237.2000,-648179,367.068
237.1000,-694493,367.239
237.0000,-864328,367.408
236.9000,-1.06071E+006,367.583
236.8000,-1.0568E+006,367.762
236.7000,-963206,367.941
236.6000,-1.09454E+006,368.105
236.5000,-1.07734E+006,368.28
236.4000,-1.12904E+006,368.454
236.3000,-1.05637E+006,368.638
236.2000,-966811,368.824
236.1000,-842950,369.007
236.0000,-735213,369.193
235.9000,-783372,369.374
235.8000,-776484,369.565
235.7000,-785622,369.755
235.6000,-732986,369.939
235.5000,-748310,370.118
235.4000,-800055,370.302
235.3000,-869006,370.488
235.2000,-946054,370.682
235.1000,-932369,370.88
235.0000,-898953,371.081
234.9000,-849791,371.276
234.8000,-829088,371.473
234.7000,-878630,371.673
234.6000,-927504,371.866
234.5000,-918989,372.066
234.4000,-922968,372.267
234.3000,-891494,372.464
234.2000,-785173,372.669
234.1000,-708276,372.883
234.0000,-771691,373.087
233.9000,-813100,373.292
233.8000,-810439,373.507
233.7000,-802459,373.714
233.6000,-633812,373.922
233.5000,-565523,374.131
233.4000,-662133,374.329
233.3000,-761554,374.522
233.2000,-679346,374.728
233.1000,-555544,374.936
233.0000,-569044,375.141
232.9000,-532875,375.347
232.8000,-496750,375.568
232.7000,-625974,375.786
232.6000,-729442,376.009
232.5000,-769234,376.234
232.4000,-771516,376.448
232.3000,-911060,376.663
232.2000,-888715,376.873
232.1000,-867402,377.085
232.0000,-949693,377.287
231.9000,-908069,377.483
231.8000,-713786,377.679
231.7000,-502049,377.884
231.6000,-473871,378.093
231.5000,-446315,378.294
231.4000,-548493,378.499
231.3000,-532099,378.707
231.2000,-558332,378.919
231.1000,-623891,379.128
231.0000,-807831,379.34
230.9000,-980751,379.552
230.8000,-1.02115E+006,379.753
230.7000,-1.07196E+006,379.967
230.6000,-1.07507E+006,380.182
230.5000,-1.0944E+006,380.407
230.4000,-1.06588E+006,380.627
230.3000,-1.07091E+006,380.855
230.2000,-1.06604E+006,381.083
230.1000,-957405,381.317
230.0000,-951832,381.543
229.9000,-1.03348E+006,381.764
229.8000,-1.01047E+006,381.993
229.7000,-902144,382.206
229.6000,-917374,382.42
229.5000,-840534,382.628
229.4000,-700872,382.829
229.3000,-740129,383.027
229.2000,-759520,383.225
229.1000,-768635,383.422
229.0000,-694041,383.62
228.9000,-672356,383.825
228.8000,-511855,384.033
228.7000,-384946,384.252
228.6000,-512473,384.472
228.5000,-562476,384.692
228.4000,-507390,384.935
228.3000,-350892,385.184
228.2000,-141259,385.437
228.1000,-131546,385.696
228.0000,-197723,385.957
227.9000,-492811,386.205
227.8000,-602124,386.452
227.7000,-567796,386.713
227.6000,-646013,386.963
227.5000,-661186,387.212
227.4000,-847192,387.461
227.3000,-942301,387.712
227.2000,-1.11921E+006,387.954
227.1000,-1.13996E+006,388.198
227.0000,-1.00131E+006,388.452
226.9000,-1.09092E+006,388.69
226.8000,-1.11241E+006,388.933
226.7000,-1.40007E+006,389.167
226.6000,-1.55355E+006,389.401
226.5000,-1.62925E+006,389.63
226.4000,-1.68546E+006,389.857
226.3000,-1.67688E+006,390.089
226.2000,-1.82228E+006,390.33
226.1000,-1.7401E+006,390.578
226.0000,-1.70014E+006,390.819
225.9000,-1.40527E+006,391.063
225.8000,-1.12096E+006,391.308
225.7000,-1.07384E+006,391.553
225.6000,-1.13386E+006,391.796
225.5000,-1.13375E+006,392.039
225.4000,-977865,392.277
225.3000,-975086,392.518
225.2000,-984305,392.758
225.1000,-1.05949E+006,393.004
225.0000,-1.25256E+006,393.242
224.9000,-1.26269E+006,393.489
224.8000,-1.09433E+006,393.734
224.7000,-889122,393.98
224.6000,-892836,394.221
224.5000,-877330,394.461
224.4000,-898132,394.697
224.3000,-952633,394.935
224.2000,-939316,395.174
224.1000,-1.0016E+006,395.409
224.0000,-1.14519E+006,395.645
223.9000,-1.29205E+006,395.88
223.8000,-1.32936E+006,396.119
223.7000,-1.31527E+006,396.366
223.6000,-1.24183E+006,396.61
223.5000,-1.24746E+006,396.853
223.4000,-1.19233E+006,397.093
223.3000,-1.17541E+006,397.329
223.2000,-1.23195E+006,397.566
223.1000,-1.10314E+006,397.805
223.0000,-1.21646E+006,398.044
222.9000,-1.30427E+006,398.28
222.8000,-1.53895E+006,398.508
222.7000,-1.4304E+006,398.744
222.6000,-1.37733E+006,398.979
222.5000,-1.40958E+006,399.217
222.4000,-1.18095E+006,399.449
222.3000,-1.14779E+006,399.682
222.2000,-1.0823E+006,399.914
222.1000,-978850,400.144
222.0000,-792594,400.373
221.9000,-933512,400.587
221.8000,-1.11766E+006,400.803
221.7000,-1.14783E+006,401.03
221.6000,-1.13636E+006,401.26
221.5000,-995049,401.498
221.4000,-861726,401.726
221.3000,-852219,401.953
221.2000,-864465,402.182
221.1000,-828673,402.419
221.0000,-723968,402.656
220.9000,-563201,402.889
220.8000,-456775,403.123
220.7000,-504359,403.341
220.6000,-694535,403.563
220.5000,-796590,403.79
220.4000,-833449,404.016
220.3000,-668315,404.249
220.2000,-483172,404.489
220.1000,-533918,404.722
220.0000,-751671,404.95
219.9000,-860162,405.187
219.8000,-733782,405.422
219.7000,-611953,405.659
219.6000,-582893,405.886
219.5000,-555113,406.119
219.4000,-741824,406.348
219.3000,-851872,406.571
219.2000,-729837,406.802
219.1000,-447127,407.035
219.0000,-528081,407.266
218.9000,-732687,407.489
218.8000,-809863,407.719
218.7000,-782535,407.952
218.6000,-831029,408.178
218.5000,-773445,408.405
218.4000,-740292,408.633
218.3000,-767823,408.86
218.2000,-863580,409.084
218.1000,-696375,409.317
218.0000,-428653,409.555
217.9000,-291707,409.787
217.8000,-296011,410.011
217.7000,-197835,410.245
217.6000,-258929,410.474
217.5000,-313559,410.709
217.4000,-327443,410.94
217.3000,-352353,411.17
217.2000,-536867,411.399
217.1000,-763373,411.624
217.0000,-935080,411.848
216.9000,-1.10495E+006,412.075
216.8000,-1.10937E+006,412.305
216.7000,-1.11446E+006,412.527
216.6000,-1.12705E+006,412.758
216.5000,-1.14301E+006,412.987
216.4000,-1.09206E+006,413.217
216.3000,-1.11923E+006,413.44
216.2000,-932217,413.677
216.1000,-721782,413.916
216.0000,-462889,414.152
215.9000,-541860,414.384
215.8000,-544485,414.614
215.7000,-597328,414.85
215.6000,-535542,415.09
215.5000,-524163,415.33
215.4000,-548648,415.571
215.3000,-627054,415.804
215.2000,-747205,416.04
215.1000,-749026,416.286
215.0000,-646283,416.54
214.9000,-510756,416.791
214.8000,-556456,417.036
214.7000,-682753,417.281
214.6000,-710929,417.526
214.5000,-771837,417.775
214.4000,-908804,418.023
214.3000,-1.08256E+006,418.267
214.2000,-1.29287E+006,418.506
214.1000,-1.45598E+006,418.747
214.0000,-1.56413E+006,418.99
213.9000,-1.35806E+006,419.244
213.8000,-1.21964E+006,419.499
213.7000,-1.03398E+006,419.756
213.6000,-698281,420.021
213.5000,-496828,420.287
213.4000,-252412,420.554
213.3000,-163848,420.821
213.2000,62739.6,421.092
213.1000,105773,421.363
213.0000,186012,421.636
212.9000,185913,421.91
212.8000,47644.6,422.176
212.7000,-184208,422.435
212.6000,-256494,422.702
212.5000,-295470,422.972
212.4000,-354064,423.243
212.3000,-529136,423.508
212.2000,-758279,423.773
212.1000,-778657,424.043
212.0000,-882480,424.32
211.9000,-822991,424.606
211.8000,-749662,424.89
211.7000,-749694,425.169
211.6000,-758345,425.452
211.5000,-754145,425.733
211.4000,-612169,426.026
211.3000,-670766,426.316
211.2000,-484021,426.606
211.1000,-346298,426.897
211.0000,-440117,427.188
210.9000,-443079,427.489
210.8000,-231459,427.792
210.7000,-170252,428.104
210.6000,-255605,428.406
210.5000,-186328,428.722
210.4000,-133703,429.042
210.3000,-179898,429.363
210.2000,-46301.4,429.683
210.1000,-3270.74,430.005
210.0000,-27536.4,430.327
209.9000,-53465.3,430.649
209.8000,-96926.6,430.968
209.7000,-32442.1,431.291
209.6000,26361.1,431.611
209.5000,-139568,431.93
209.4000,-128482,432.257
209.3000,-212934,432.58
209.2000,-298426,432.908
209.1000,-403124,433.234
209.0000,-145659,433.57
208.9000,-23892.7,433.907
208.8000,114392,434.24
208.7000,224965,434.572
208.6000,294234,434.912
208.5000,386570,435.256
208.4000,690208,435.599
208.3000,794102,435.946
208.2000,547551,436.285
208.1000,435105,436.631
208.0000,219789,436.975
207.9000,60109.3,437.321
207.8000,-15692.9,437.669
207.7000,129616,438.018
207.6000,129229,438.365
207.5000,-5768.25,438.71
207.4000,-136486,439.054
207.3000,-166958,439.397
207.2000,231.074,439.748
207.1000,88656.6,440.099
207.0000,228555,440.451
206.9000,170552,440.804
206.8000,117679,441.155
206.7000,106222,441.511
206.6000,263907,441.87
206.5000,292378,442.23
206.4000,186088,442.588
206.3000,-104276,442.944
206.2000,-416256,443.297
206.1000,-855281,443.644
206.0000,-1.0778E+006,444.001
205.9000,-1.17426E+006,444.36
205.8000,-1.09394E+006,444.728
205.7000,-1.03656E+006,445.097
205.6000,-703714,445.476
205.5000,-775789,445.849
205.4000,-923209,446.215
205.3000,-630907,446.601
205.2000,-432959,446.984
205.1000,-366262,447.37
205.0000,-353970,447.758
204.9000,-468641,448.142
204.8000,-947947,448.521
204.7000,-1.2282E+006,448.906
204.6000,-1.0364E+006,449.305
204.5000,-621930,449.715
204.4000,-619204,450.113
204.3000,-723304,450.512
204.2000,-721336,450.912
204.1000,-797137,451.309
204.0000,-792860,451.709
203.9000,-711446,452.111
203.8000,-624617,452.52
203.7000,-1.03722E+006,452.916
203.6000,-1.25283E+006,453.322
203.5000,-1.4022E+006,453.728
203.4000,-1.62592E+006,454.141
203.3000,-1.49634E+006,454.567
203.2000,-1.32619E+006,454.997
203.1000,-1.04883E+006,455.434
203.0000,-756956,455.877
202.9000,-445865,456.32
202.8000,-396726,456.758
202.7000,-152670,457.206
202.6000,231746,457.659
202.5000,134888,458.093
202.4000,-37136.4,458.53
202.3000,52850.6,458.981
202.2000,153450,459.429
202.1000,149750,459.878
202.0000,217440,460.337
201.9000,88680.5,460.796
201.8000,-240120,461.257
201.7000,-203967,461.736
201.6000,-167501,462.225
201.5000,-48978.3,462.717
201.4000,-244081,463.209
201.3000,-322453,463.711
201.2000,-434404,464.221
201.1000,-447365,464.736
201.0000,-382192,465.255
200.9000,-369794,465.783
200.8000,-213306,466.322
200.7000,-275641,466.865
200.6000,-254252,467.419
200.5000,-153165,467.989
200.4000,-124303,468.566
200.3000,46230.5,469.159
200.2000,158963,469.762
200.1000,512707,470.374
200.0000,540740,470.983
199.9000,558774,471.594
199.8000,513018,472.203
199.7000,320079,472.797
199.6000,442085,473.4
199.5000,199109,473.998
199.4000,519785,474.607
199.3000,763709,475.219
199.2000,994771,475.832
199.1000,1.02672E+006,476.452
199.0000,1.34727E+006,477.082
198.9000,1.37635E+006,477.72
198.8000,1.26367E+006,478.367
198.7000,1.48288E+006,479.037
198.6000,1.41657E+006,479.708
198.5000,1.36166E+006,480.397
198.4000,1.21594E+006,481.094
198.3000,920996,481.792
198.2000,715274,482.513
198.1000,462704,483.248
198.0000,735532,484.018
197.9000,737162,484.789
197.8000,850379,485.571
197.7000,493066,486.349
197.6000,-131790,487.123
197.5000,-461812,487.905
197.4000,-649394,488.676
197.3000,-618121,489.427
197.2000,-686029,490.137
197.1000,-683922,490.814
197.0000,-1.23022E+006,491.452
196.9000,-1.55785E+006,492.075
196.8000,-991492,492.712
196.7000,-230826,493.36
196.6000,-183799,494.005
196.5000,-274866,494.673
196.4000,-240358,495.39
196.3000,-567210,496.145
196.2000,-593636,496.963
196.1000,-159112,497.845
196.0000,64346,498.789
195.9000,47178.2,499.8
195.8000,129306,500.902
195.7000,84944.2,502.105
195.6000,-478880,503.403
195.5000,-475707,504.827
195.4000,-513444,506.341
195.3000,-480258,507.916
195.2000,-942683,509.507
195.1000,-1.35613E+006,511.091
195.0000,-1.68375E+006,512.607
194.9000,-1.72592E+006,514.004
194.8000,-1.41657E+006,515.25
194.7000,-1.38473E+006,516.316
194.6000,-1.44008E+006,517.248
194.5000,-1.45515E+006,518.079
194.4000,-1.58826E+006,518.85
194.3000,-1.55232E+006,519.599
194.2000,-1.35271E+006,520.397
194.1000,-1.02772E+006,521.313
194.0000,-383436,522.407
193.9000,521122,523.721
193.8000,938283,525.243
193.7000,1.76822E+006,527.042
193.6000,2.28656E+006,529.129
193.5000,2.437E+006,531.529
193.4000,2.36342E+006,534.284
193.3000,2.98283E+006,537.426
193.2000,2.87316E+006,540.884
193.1000,1.8461E+006,544.587
193.0000,1.72571E+006,548.497
192.9000,1.72492E+006,552.483
192.8000,1.59662E+006,556.385
192.7000,1.88489E+006,560.065
192.6000,1.79058E+006,563.305
192.5000,713118,565.976
192.4000,-173492,568.119
192.3000,250406,569.838
192.2000,-66573,571.179
192.1000,-235395,572.253
192.0000,-339938,573.218
191.9000,-565502,574.242
191.8000,-769003,575.573
191.7000,-432703,577.432
191.6000,22439.3,579.872
191.5000,-64565.4,582.902
191.4000,554141,586.551
191.3000,472296,590.849
191.2000,-540847,595.837
191.1000,-1.0888E+006,601.535
191.0000,-1.84798E+006,607.831
190.9000,-1.1893E+006,614.669
190.8000,-689662,621.899
190.7000,-182509,629.366
190.6000,218134,636.91
190.5000,-86472.1,644.273
190.4000,-293403,651.154
190.3000,-1.95595E+006,657.292
190.2000,-1.71584E+006,662.748
190.1000,-1.21426E+006,667.535
190.0000,-250905,671.759

##### Extended Information
[Comments]
Sample name,cal_0.8uM
Comment
User
Division
Company,CSIR-IMTECH

[Detailed Information]
Creation date,4/9/2024 3:45 PM

Data array type,Linear data array * 2
Horizontal axis,Wavelength [nm]
Vertical axis(1),Mol. Ellip.
Vertical axis(2),HT [V]
Start,350 nm
End,190 nm
Data interval,0.1 nm
Data points,1601    

[Measurement Information]
Instrument Name,JASCO CD
Model Name,J-815
Serial No.,B063061168

Accessory,PTC-423S
Accessory S/N,C013945-01
  Temperature,37.56 C
  Control Sonsor,Cell
  Monitor Sensor,Cell
  Start Mode,Start immediately
  Cell Length,10 mm

Measurement date,4/9/2024 3:43 PM

Photometric Mode,CD, HT
Measure Range,350 - 190 nm
Data pitch,0.1 nm
Sensitivity,Standard
D.I.T.,1 sec
Bandwidth,1.00 nm
Start Mode,Immediately
Scanning Speed,50 nm/min
Baseline Correction,None
Shutter Control,Auto
CD Detector,PMT
PMT Voltage,Auto
Accumulations,3
Concentration,0.8 umol/L

