TITLE,ACE2_seo_0.6uM
DATA TYPE,
ORIGIN,JASCO
OWNER,
DATE,24/04/08
TIME,17:15:51
SPECTROMETER/DATA SYSTEM,
LOCALE,1033
RESOLUTION,
DELTAX,-0.1
XUNITS,NANOMETERS
YUNITS,Mol. Ellip.
Y2UNITS,HT [V]
FIRSTX,  350.0000
LASTX,  190.0000
NPOINTS,    1601
FIRSTY,-709109.37500
MAXY,21742882.00000
MINY,-9318716.00000
XYDATA
350.0000,-709109,490.375
349.9000,-84290.2,489.786
349.8000,-770725,488.88
349.7000,-2.4359E+006,487.956
349.6000,-2.48156E+006,487.297
349.5000,-1.83469E+006,486.726
349.4000,-1.81026E+006,485.831
349.3000,-2.70035E+006,485.18
349.2000,-2.84645E+006,484.632
349.1000,-2.69167E+006,483.769
349.0000,-2.41096E+006,483.132
348.9000,-1.17175E+006,482.585
348.8000,-266731,481.732
348.7000,-498725,480.854
348.6000,-497696,480.229
348.5000,-437396,479.687
348.4000,-714751,478.807
348.3000,-2.08298E+006,478.14
348.2000,-3.47713E+006,477.554
348.1000,-4.27723E+006,476.67
348.0000,-5.34476E+006,475.997
347.9000,-5.68143E+006,475.418
347.8000,-6.24497E+006,474.553
347.7000,-6.31427E+006,473.677
347.6000,-6.1301E+006,473.051
347.5000,-5.82079E+006,472.532
347.4000,-4.95507E+006,471.728
347.3000,-5.29903E+006,471.122
347.2000,-4.51518E+006,470.619
347.1000,-3.88459E+006,469.861
347.0000,-2.48828E+006,469.312
346.9000,-1.70767E+006,468.839
346.8000,-1.59581E+006,468.073
346.7000,-1.64305E+006,467.294
346.6000,-1.32816E+006,466.716
346.5000,-740741,465.95
346.4000,-382118,465.171
346.3000,-175733,464.562
346.2000,-254946,463.762
346.1000,-490847,462.946
346.0000,-349283,462.346
345.9000,-409598,461.825
345.8000,-1.15572E+006,461.014
345.7000,-1.78109E+006,460.419
345.6000,-2.58321E+006,459.912
345.5000,-3.86163E+006,459.182
345.4000,-5.00903E+006,458.648
345.3000,-5.16761E+006,458.204
345.2000,-5.39357E+006,457.492
345.1000,-5.57755E+006,456.772
345.0000,-5.10213E+006,456.251
344.9000,-4.47268E+006,455.593
344.8000,-4.13228E+006,454.916
344.7000,-3.21839E+006,454.397
344.6000,-1.87981E+006,453.714
344.5000,-1.22852E+006,453.011
344.4000,-1.04329E+006,452.487
344.3000,-1.0061E+006,451.809
344.2000,-1.12973E+006,451.124
344.1000,-1.15406E+006,450.603
344.0000,-1.36666E+006,449.917
343.9000,-1.04873E+006,449.232
343.8000,-1.10603E+006,448.733
343.7000,-1.32143E+006,448.304
343.6000,-711019,447.657
343.5000,-144910,447.186
343.4000,-23284,446.779
343.3000,-175303,446.112
343.2000,-4132.96,445.627
343.1000,646057,445.217
343.0000,776503,444.624
342.9000,770388,444.013
342.8000,690866,443.558
342.7000,407561,442.929
342.6000,320402,442.288
342.5000,563834,441.828
342.4000,613574,441.256
342.3000,126856,440.668
342.2000,-64473.5,440.202
342.1000,-661107,439.594
342.0000,-951714,438.987
341.9000,-1.89271E+006,438.556
341.8000,-2.38919E+006,437.996
341.7000,-3.3005E+006,437.423
341.6000,-3.83851E+006,436.999
341.5000,-4.04008E+006,436.46
341.4000,-4.63827E+006,435.906
341.3000,-4.62894E+006,435.503
341.2000,-4.67468E+006,434.937
341.1000,-4.72213E+006,434.355
341.0000,-4.69101E+006,433.924
340.9000,-4.07151E+006,433.367
340.8000,-3.83336E+006,432.792
340.7000,-2.98692E+006,432.349
340.6000,-2.68961E+006,431.792
340.5000,-2.46188E+006,431.23
340.4000,-2.75065E+006,430.817
340.3000,-2.93006E+006,430.275
340.2000,-1.97518E+006,429.738
340.1000,-1.69262E+006,429.345
340.0000,-721183,428.86
339.9000,-344019,428.365
339.8000,-636460,427.987
339.7000,-724727,427.506
339.6000,-60163.7,427.028
339.5000,667568,426.691
339.4000,153331,426.217
339.3000,-718480,425.72
339.2000,-1.57347E+006,425.182
339.1000,-2.66193E+006,424.694
339.0000,-2.84816E+006,424.205
338.9000,-2.78296E+006,423.65
338.8000,-3.19483E+006,423.132
338.7000,-3.6864E+006,422.604
338.6000,-3.63376E+006,422.043
338.5000,-3.18771E+006,421.554
338.4000,-2.81935E+006,421.188
338.3000,-2.48442E+006,420.734
338.2000,-2.20221E+006,420.272
338.1000,-1.73147E+006,419.946
338.0000,-1.68552E+006,419.508
337.9000,-1.59193E+006,419.068
337.8000,-1.7888E+006,418.76
337.7000,-2.07E+006,418.356
337.6000,-1.94949E+006,417.945
337.5000,-1.42319E+006,417.632
337.4000,-1.31299E+006,417.226
337.3000,-1.54825E+006,416.8
337.2000,-1.36802E+006,416.326
337.1000,-991150,415.912
337.0000,-855893,415.486
336.9000,-804103,415.019
336.8000,-768752,414.602
336.7000,-969101,414.181
336.6000,-1.49822E+006,413.714
336.5000,-1.15215E+006,413.294
336.4000,-746025,413.003
336.3000,-457577,412.598
336.2000,-602351,412.184
336.1000,-824662,411.883
336.0000,-741937,411.508
335.9000,-821320,411.112
335.8000,-396884,410.678
335.7000,-218707,410.288
335.6000,-211921,409.885
335.5000,-588576,409.466
335.4000,-605033,409.1
335.3000,-618464,408.728
335.2000,-418299,408.334
335.1000,-283901,407.986
335.0000,-681439,407.753
334.9000,-1.30865E+006,407.416
334.8000,-2.04974E+006,407.058
334.7000,-2.34396E+006,406.68
334.6000,-2.45765E+006,406.347
334.5000,-2.17033E+006,406.008
334.4000,-1.72066E+006,405.598
334.3000,-1.86483E+006,405.211
334.2000,-1.81991E+006,404.815
334.1000,-1.61147E+006,404.394
334.0000,-1.14678E+006,404.033
333.9000,-866819,403.764
333.8000,-836753,403.416
333.7000,-995120,403.06
333.6000,-1.18243E+006,402.675
333.5000,-1.15158E+006,402.351
333.4000,-1.08404E+006,402.021
333.3000,-1.10091E+006,401.667
333.2000,-778392,401.362
333.1000,-1.04926E+006,401.042
333.0000,-1.61619E+006,400.695
332.9000,-1.91262E+006,400.384
332.8000,-2.17288E+006,400.034
332.7000,-2.4214E+006,399.724
332.6000,-2.16583E+006,399.41
332.5000,-1.72475E+006,399.065
332.4000,-1.64819E+006,398.758
332.3000,-1.72508E+006,398.449
332.2000,-1.60912E+006,398.098
332.1000,-1.59089E+006,397.776
332.0000,-1.7976E+006,397.433
331.9000,-2.0442E+006,397.141
331.8000,-2.18002E+006,396.851
331.7000,-2.96018E+006,396.519
331.6000,-3.54457E+006,396.216
331.5000,-3.81948E+006,395.795
331.4000,-3.63963E+006,395.463
331.3000,-2.88503E+006,395.176
331.2000,-2.46056E+006,394.857
331.1000,-1.93437E+006,394.57
331.0000,-1.6031E+006,394.278
330.9000,-1.00979E+006,393.974
330.8000,-515640,393.707
330.7000,-463251,393.401
330.6000,-601534,393.13
330.5000,-1.287E+006,392.853
330.4000,-1.72403E+006,392.553
330.3000,-1.7702E+006,392.297
330.2000,-1.95478E+006,391.923
330.1000,-2.1276E+006,391.618
330.0000,-2.54072E+006,391.342
329.9000,-2.36487E+006,391.053
329.8000,-1.93789E+006,390.804
329.7000,-1.30014E+006,390.464
329.6000,-963098,390.198
329.5000,-762390,389.962
329.4000,-922366,389.666
329.3000,-832727,389.403
329.2000,-616998,389.042
329.1000,-525780,388.754
329.0000,-751124,388.495
328.9000,-1.10677E+006,388.212
328.8000,-1.27645E+006,387.955
328.7000,-1.149E+006,387.603
328.6000,-1.10092E+006,387.345
328.5000,-1.06071E+006,387.135
328.4000,-1.23008E+006,386.872
328.3000,-1.38443E+006,386.639
328.2000,-1.52179E+006,386.335
328.1000,-1.28832E+006,386.097
328.0000,-1.24975E+006,385.884
327.9000,-1.44213E+006,385.619
327.8000,-1.63841E+006,385.382
327.7000,-1.61086E+006,385.112
327.6000,-1.55505E+006,384.933
327.5000,-1.5282E+006,384.795
327.4000,-1.22252E+006,384.528
327.3000,-885362,384.276
327.2000,-1.28591E+006,383.965
327.1000,-1.31214E+006,383.74
327.0000,-1.2442E+006,383.555
326.9000,-1.27793E+006,383.272
326.8000,-1.37313E+006,382.985
326.7000,-1.19186E+006,382.653
326.6000,-1.47949E+006,382.445
326.5000,-1.71857E+006,382.303
326.4000,-1.62307E+006,382.039
326.3000,-1.18884E+006,381.783
326.2000,-1.40176E+006,381.501
326.1000,-1.42196E+006,381.307
326.0000,-1.22008E+006,381.001
325.9000,-1.08678E+006,380.72
325.8000,-617585,380.454
325.7000,-211787,380.202
325.6000,32055.8,380.063
325.5000,329512,379.772
325.4000,666057,379.492
325.3000,747686,379.209
325.2000,683271,379.04
325.1000,342386,378.923
325.0000,331197,378.642
324.9000,156150,378.345
324.8000,236875,378.027
324.7000,-30846.9,377.862
324.6000,-332492,377.769
324.5000,-545908,377.498
324.4000,-639725,377.22
324.3000,-646435,376.958
324.2000,-1.01826E+006,376.805
324.1000,-1.55168E+006,376.533
324.0000,-1.84629E+006,376.264
323.9000,-1.89527E+006,375.988
323.8000,-1.8828E+006,375.739
323.7000,-1.39213E+006,375.618
323.6000,-1.20608E+006,375.353
323.5000,-853611,375.071
323.4000,-138165,374.797
323.3000,-124191,374.65
323.2000,-409165,374.56
323.1000,-773526,374.299
323.0000,-1.16219E+006,374.014
322.9000,-1.50024E+006,373.722
322.8000,-1.84131E+006,373.576
322.7000,-2.25082E+006,373.317
322.6000,-2.90979E+006,373.033
322.5000,-3.14456E+006,372.746
322.4000,-2.87313E+006,372.459
322.3000,-2.92393E+006,372.277
322.2000,-2.74295E+006,371.976
322.1000,-2.5527E+006,371.662
322.0000,-2.81229E+006,371.344
321.9000,-2.51867E+006,371.161
321.8000,-1.93101E+006,370.87
321.7000,-1.74311E+006,370.565
321.6000,-1.68859E+006,370.255
321.5000,-1.33421E+006,369.974
321.4000,-869533,369.832
321.3000,-1.02466E+006,369.619
321.2000,-906011,369.405
321.1000,-1.04056E+006,369.188
321.0000,-1.61451E+006,369.11
320.9000,-2.08389E+006,368.951
320.8000,-2.33506E+006,368.793
320.7000,-2.44752E+006,368.652
320.6000,-2.69278E+006,368.5
320.5000,-2.66269E+006,368.451
320.4000,-2.56437E+006,368.284
320.3000,-2.57715E+006,368.106
320.2000,-2.43959E+006,367.932
320.1000,-2.02499E+006,367.87
320.0000,-1.64527E+006,367.716
319.9000,-1.74984E+006,367.536
319.8000,-2.05454E+006,367.342
319.7000,-2.16661E+006,367.141
319.6000,-2.3264E+006,366.915
319.5000,-2.41218E+006,366.745
319.4000,-2.19455E+006,366.561
319.3000,-2.34005E+006,366.348
319.2000,-2.63083E+006,366.233
319.1000,-2.69883E+006,366.026
319.0000,-2.31611E+006,365.811
318.9000,-2.01973E+006,365.588
318.8000,-1.83326E+006,365.465
318.7000,-1.60819E+006,365.236
318.6000,-1.60841E+006,364.998
318.5000,-1.81958E+006,364.79
318.4000,-2.14915E+006,364.581
318.3000,-2.35655E+006,364.357
318.2000,-2.53441E+006,364.187
318.1000,-2.90178E+006,364.021
318.0000,-2.9948E+006,363.833
317.9000,-2.80418E+006,363.76
317.8000,-2.99834E+006,363.626
317.7000,-2.8118E+006,363.48
317.6000,-2.40066E+006,363.303
317.5000,-1.90485E+006,363.208
317.4000,-1.40772E+006,363.038
317.3000,-1.19185E+006,362.852
317.2000,-1.34671E+006,362.663
317.1000,-1.7346E+006,362.47
317.0000,-1.54095E+006,362.218
316.9000,-1.49467E+006,362.001
316.8000,-1.2749E+006,361.806
316.7000,-1.54078E+006,361.609
316.6000,-2.04186E+006,361.405
316.5000,-2.219E+006,361.242
316.4000,-2.2359E+006,361.065
316.3000,-2.16857E+006,360.884
316.2000,-2.27914E+006,360.716
316.1000,-2.27974E+006,360.599
316.0000,-2.32769E+006,360.477
315.9000,-2.48321E+006,360.315
315.8000,-2.19861E+006,360.218
315.7000,-2.33765E+006,360.049
315.6000,-2.43801E+006,359.898
315.5000,-2.32363E+006,359.727
315.4000,-2.31203E+006,359.619
315.3000,-2.27831E+006,359.426
315.2000,-2.49448E+006,359.222
315.1000,-2.61616E+006,359.032
315.0000,-2.70254E+006,358.85
314.9000,-2.49968E+006,358.67
314.8000,-2.45641E+006,358.519
314.7000,-2.49297E+006,358.354
314.6000,-2.55801E+006,358.19
314.5000,-2.83315E+006,358.035
314.4000,-3.24173E+006,357.918
314.3000,-3.59331E+006,357.775
314.2000,-3.71947E+006,357.635
314.1000,-3.925E+006,357.452
314.0000,-4.02728E+006,357.293
313.9000,-4.08727E+006,357.131
313.8000,-4.1069E+006,356.977
313.7000,-4.03294E+006,356.754
313.6000,-3.74607E+006,356.551
313.5000,-3.14093E+006,356.367
313.4000,-2.72067E+006,356.189
313.3000,-2.50574E+006,356.017
313.2000,-2.38665E+006,355.871
313.1000,-2.28614E+006,355.71
313.0000,-2.35219E+006,355.551
312.9000,-2.48549E+006,355.413
312.8000,-2.42183E+006,355.319
312.7000,-2.46944E+006,355.188
312.6000,-2.8317E+006,355.053
312.5000,-2.76095E+006,354.889
312.4000,-2.84841E+006,354.735
312.3000,-2.93943E+006,354.565
312.2000,-2.76557E+006,354.403
312.1000,-2.63115E+006,354.183
312.0000,-2.59708E+006,353.974
311.9000,-2.77325E+006,353.768
311.8000,-2.65718E+006,353.528
311.7000,-2.51757E+006,353.335
311.6000,-2.35119E+006,353.129
311.5000,-1.7132E+006,352.966
311.4000,-1.38624E+006,352.764
311.3000,-1.18887E+006,352.633
311.2000,-1.009E+006,352.499
311.1000,-777477,352.391
311.0000,-726494,352.274
310.9000,-1.09761E+006,352.178
310.8000,-1.35044E+006,352.073
310.7000,-1.68154E+006,351.983
310.6000,-1.79845E+006,351.86
310.5000,-1.92067E+006,351.754
310.4000,-1.76538E+006,351.654
310.3000,-1.72103E+006,351.566
310.2000,-1.7612E+006,351.478
310.1000,-1.71511E+006,351.406
310.0000,-1.53854E+006,351.326
309.9000,-1.48077E+006,351.255
309.8000,-1.46516E+006,351.189
309.7000,-1.53E+006,351.094
309.6000,-1.79046E+006,351.017
309.5000,-2.25276E+006,350.895
309.4000,-2.52994E+006,350.8
309.3000,-2.59913E+006,350.664
309.2000,-2.63815E+006,350.554
309.1000,-2.82966E+006,350.38
309.0000,-3.09176E+006,350.232
308.9000,-3.45818E+006,350.098
308.8000,-3.61811E+006,349.98
308.7000,-3.6884E+006,349.871
308.6000,-3.53734E+006,349.777
308.5000,-3.68427E+006,349.671
308.4000,-3.70021E+006,349.554
308.3000,-3.59849E+006,349.488
308.2000,-3.49254E+006,349.383
308.1000,-3.28472E+006,349.304
308.0000,-2.91048E+006,349.202
307.9000,-2.62062E+006,349.112
307.8000,-2.4993E+006,348.97
307.7000,-2.33053E+006,348.858
307.6000,-2.20212E+006,348.73
307.5000,-2.58558E+006,348.551
307.4000,-2.74337E+006,348.421
307.3000,-2.94098E+006,348.297
307.2000,-3.21627E+006,348.195
307.1000,-3.34114E+006,348.052
307.0000,-3.35574E+006,347.952
306.9000,-3.16416E+006,347.858
306.8000,-3.12468E+006,347.799
306.7000,-3.06562E+006,347.734
306.6000,-2.91482E+006,347.65
306.5000,-2.56E+006,347.572
306.4000,-2.22492E+006,347.447
306.3000,-2.27162E+006,347.355
306.2000,-2.39295E+006,347.233
306.1000,-2.72118E+006,347.119
306.0000,-2.99336E+006,346.962
305.9000,-3.04108E+006,346.851
305.8000,-3.05219E+006,346.768
305.7000,-3.27112E+006,346.654
305.6000,-3.45503E+006,346.57
305.5000,-3.54936E+006,346.484
305.4000,-3.54506E+006,346.432
305.3000,-3.28889E+006,346.344
305.2000,-2.93173E+006,346.288
305.1000,-2.45889E+006,346.209
305.0000,-2.019E+006,346.082
304.9000,-1.71229E+006,345.988
304.8000,-1.5995E+006,345.873
304.7000,-1.48005E+006,345.776
304.6000,-1.53658E+006,345.637
304.5000,-1.83063E+006,345.518
304.4000,-1.974E+006,345.415
304.3000,-2.37636E+006,345.292
304.2000,-2.72617E+006,345.219
304.1000,-2.94153E+006,345.15
304.0000,-3.14112E+006,345.108
303.9000,-3.37628E+006,345.02
303.8000,-3.53501E+006,344.935
303.7000,-3.35817E+006,344.883
303.6000,-3.63625E+006,344.779
303.5000,-3.62744E+006,344.71
303.4000,-3.54986E+006,344.62
303.3000,-3.54438E+006,344.51
303.2000,-3.28479E+006,344.405
303.1000,-2.94161E+006,344.32
303.0000,-2.43445E+006,344.276
302.9000,-2.24605E+006,344.195
302.8000,-1.85432E+006,344.128
302.7000,-1.43266E+006,344.074
302.6000,-1.24972E+006,343.996
302.5000,-1.0942E+006,343.952
302.4000,-977028,343.89
302.3000,-1.05533E+006,343.791
302.2000,-1.30415E+006,343.698
302.1000,-1.54202E+006,343.609
302.0000,-1.85188E+006,343.545
301.9000,-2.13486E+006,343.455
301.8000,-2.37313E+006,343.376
301.7000,-2.75843E+006,343.31
301.6000,-3.11424E+006,343.221
301.5000,-3.20459E+006,343.176
301.4000,-3.24177E+006,343.131
301.3000,-3.25996E+006,343.048
301.2000,-3.11712E+006,342.977
301.1000,-2.87392E+006,342.914
301.0000,-2.92595E+006,342.879
300.9000,-2.87837E+006,342.801
300.8000,-2.66284E+006,342.726
300.7000,-2.71613E+006,342.661
300.6000,-2.75671E+006,342.576
300.5000,-2.81056E+006,342.513
300.4000,-2.79762E+006,342.465
300.3000,-2.8171E+006,342.389
300.2000,-2.72504E+006,342.32
300.1000,-2.63332E+006,342.266
300.0000,-2.74366E+006,342.206
299.9000,-3.05696E+006,342.151
299.8000,-3.25981E+006,342.095
299.7000,-3.41545E+006,342.028
299.6000,-3.56375E+006,341.966
299.5000,-3.70379E+006,341.9
299.4000,-3.75268E+006,341.846
299.3000,-3.73393E+006,341.776
299.2000,-3.70906E+006,341.719
299.1000,-3.53003E+006,341.679
299.0000,-3.371E+006,341.613
298.9000,-3.0683E+006,341.562
298.8000,-2.73979E+006,341.524
298.7000,-2.77459E+006,341.468
298.6000,-2.83323E+006,341.423
298.5000,-2.98037E+006,341.37
298.4000,-2.81008E+006,341.308
298.3000,-2.7809E+006,341.251
298.2000,-2.66914E+006,341.192
298.1000,-2.67478E+006,341.132
298.0000,-3.10642E+006,341.073
297.9000,-3.29148E+006,341.024
297.8000,-3.02079E+006,340.954
297.7000,-2.81272E+006,340.902
297.6000,-2.7169E+006,340.86
297.5000,-2.67544E+006,340.793
297.4000,-2.46826E+006,340.748
297.3000,-2.17242E+006,340.706
297.2000,-1.73151E+006,340.641
297.1000,-1.49486E+006,340.589
297.0000,-1.61253E+006,340.538
296.9000,-1.70531E+006,340.467
296.8000,-1.65343E+006,340.414
296.7000,-1.65793E+006,340.368
296.6000,-1.61975E+006,340.333
296.5000,-1.83827E+006,340.285
296.4000,-2.32257E+006,340.248
296.3000,-2.39706E+006,340.226
296.2000,-2.26716E+006,340.189
296.1000,-2.40093E+006,340.155
296.0000,-2.71807E+006,340.126
295.9000,-2.92691E+006,340.08
295.8000,-2.92416E+006,340.017
295.7000,-3.05403E+006,339.97
295.6000,-3.00673E+006,339.926
295.5000,-3.26108E+006,339.858
295.4000,-3.4668E+006,339.781
295.3000,-3.42462E+006,339.736
295.2000,-3.31563E+006,339.676
295.1000,-3.38121E+006,339.608
295.0000,-3.58473E+006,339.567
294.9000,-3.68926E+006,339.515
294.8000,-3.58665E+006,339.448
294.7000,-3.33638E+006,339.408
294.6000,-2.99036E+006,339.374
294.5000,-2.87985E+006,339.32
294.4000,-3.01045E+006,339.278
294.3000,-2.97172E+006,339.248
294.2000,-2.79297E+006,339.199
294.1000,-2.69957E+006,339.164
294.0000,-2.70188E+006,339.141
293.9000,-2.95996E+006,339.093
293.8000,-3.17636E+006,339.059
293.7000,-3.21209E+006,339.036
293.6000,-3.18194E+006,338.985
293.5000,-3.30397E+006,338.922
293.4000,-3.40793E+006,338.891
293.3000,-3.39199E+006,338.846
293.2000,-3.4108E+006,338.792
293.1000,-3.24878E+006,338.77
293.0000,-3.10617E+006,338.726
292.9000,-3.18275E+006,338.674
292.8000,-3.29081E+006,338.653
292.7000,-2.96265E+006,338.633
292.6000,-2.82228E+006,338.596
292.5000,-3.0234E+006,338.541
292.4000,-3.18871E+006,338.509
292.3000,-3.16212E+006,338.461
292.2000,-3.15052E+006,338.415
292.1000,-2.95999E+006,338.394
292.0000,-2.70624E+006,338.352
291.9000,-2.79654E+006,338.299
291.8000,-3.02359E+006,338.258
291.7000,-2.88526E+006,338.243
291.6000,-2.8308E+006,338.203
291.5000,-3.02398E+006,338.156
291.4000,-3.17393E+006,338.131
291.3000,-3.01451E+006,338.079
291.2000,-3.22274E+006,338.009
291.1000,-3.40197E+006,337.942
291.0000,-3.33835E+006,337.892
290.9000,-3.4392E+006,337.816
290.8000,-3.46621E+006,337.725
290.7000,-3.31135E+006,337.627
290.6000,-3.21158E+006,337.52
290.5000,-3.19467E+006,337.39
290.4000,-3.12519E+006,337.257
290.3000,-3.08029E+006,337.137
290.2000,-2.78809E+006,336.993
290.1000,-2.66325E+006,336.837
290.0000,-2.77339E+006,336.697
289.9000,-2.95001E+006,336.599
289.8000,-3.21693E+006,336.51
289.7000,-3.33084E+006,336.447
289.6000,-3.64875E+006,336.419
289.5000,-3.85499E+006,336.432
289.4000,-4.02209E+006,336.471
289.3000,-4.18804E+006,336.54
289.2000,-4.22044E+006,336.632
289.1000,-3.82932E+006,336.745
289.0000,-3.47675E+006,336.85
288.9000,-3.40284E+006,336.95
288.8000,-3.24485E+006,337.043
288.7000,-2.9477E+006,337.127
288.6000,-2.63457E+006,337.188
288.5000,-2.67962E+006,337.235
288.4000,-2.43615E+006,337.264
288.3000,-2.47707E+006,337.282
288.2000,-2.67543E+006,337.282
288.1000,-2.79276E+006,337.274
288.0000,-2.89937E+006,337.256
287.9000,-3.05494E+006,337.221
287.8000,-3.02203E+006,337.201
287.7000,-2.85959E+006,337.176
287.6000,-2.81716E+006,337.155
287.5000,-2.68394E+006,337.119
287.4000,-2.48309E+006,337.097
287.3000,-2.22601E+006,337.082
287.2000,-1.98504E+006,337.066
287.1000,-1.78092E+006,337.055
287.0000,-1.89256E+006,337.016
286.9000,-2.10672E+006,336.993
286.8000,-2.3269E+006,336.977
286.7000,-2.23803E+006,336.961
286.6000,-2.21929E+006,336.936
286.5000,-2.24361E+006,336.926
286.4000,-2.27702E+006,336.913
286.3000,-2.44591E+006,336.907
286.2000,-2.64208E+006,336.9
286.1000,-2.69859E+006,336.89
286.0000,-2.33187E+006,336.896
285.9000,-2.30525E+006,336.891
285.8000,-2.47759E+006,336.889
285.7000,-2.66184E+006,336.863
285.6000,-2.74954E+006,336.841
285.5000,-2.63637E+006,336.844
285.4000,-2.69214E+006,336.84
285.3000,-2.71035E+006,336.841
285.2000,-3.16479E+006,336.81
285.1000,-3.39785E+006,336.791
285.0000,-3.30924E+006,336.799
284.9000,-3.11451E+006,336.796
284.8000,-3.07338E+006,336.798
284.7000,-3.17538E+006,336.772
284.6000,-3.06646E+006,336.757
284.5000,-3.00519E+006,336.765
284.4000,-2.83032E+006,336.774
284.3000,-2.74372E+006,336.786
284.2000,-2.75786E+006,336.763
284.1000,-3.00603E+006,336.751
284.0000,-3.16425E+006,336.73
283.9000,-3.31886E+006,336.732
283.8000,-3.60784E+006,336.74
283.7000,-3.89981E+006,336.725
283.6000,-4.20621E+006,336.708
283.5000,-4.49059E+006,336.692
283.4000,-4.58465E+006,336.688
283.3000,-4.54467E+006,336.705
283.2000,-4.61132E+006,336.723
283.1000,-4.60466E+006,336.731
283.0000,-4.62112E+006,336.722
282.9000,-4.62583E+006,336.715
282.8000,-4.3277E+006,336.712
282.7000,-4.01689E+006,336.731
282.6000,-3.7684E+006,336.748
282.5000,-4.05603E+006,336.744
282.4000,-4.03019E+006,336.737
282.3000,-3.9753E+006,336.735
282.2000,-3.97885E+006,336.733
282.1000,-3.60267E+006,336.756
282.0000,-3.33086E+006,336.779
281.9000,-3.2586E+006,336.787
281.8000,-3.31412E+006,336.785
281.7000,-3.12258E+006,336.784
281.6000,-2.89387E+006,336.784
281.5000,-2.74315E+006,336.785
281.4000,-2.53674E+006,336.809
281.3000,-2.38062E+006,336.818
281.2000,-2.403E+006,336.816
281.1000,-2.37215E+006,336.812
281.0000,-2.14805E+006,336.81
280.9000,-1.95722E+006,336.81
280.8000,-1.96315E+006,336.805
280.7000,-1.92397E+006,336.806
280.6000,-1.92047E+006,336.809
280.5000,-1.89591E+006,336.804
280.4000,-1.8709E+006,336.796
280.3000,-1.8585E+006,336.787
280.2000,-2.18652E+006,336.779
280.1000,-2.35452E+006,336.77
280.0000,-2.67969E+006,336.758
279.9000,-2.85297E+006,336.743
279.8000,-3.06079E+006,336.717
279.7000,-3.42542E+006,336.705
279.6000,-3.55059E+006,336.699
279.5000,-3.61801E+006,336.697
279.4000,-3.26203E+006,336.703
279.3000,-3.15749E+006,336.703
279.2000,-2.76393E+006,336.708
279.1000,-2.60058E+006,336.715
279.0000,-2.46654E+006,336.724
278.9000,-2.28597E+006,336.72
278.8000,-2.1702E+006,336.733
278.7000,-2.35841E+006,336.743
278.6000,-2.66921E+006,336.752
278.5000,-2.84067E+006,336.764
278.4000,-3.06659E+006,336.775
278.3000,-3.1964E+006,336.791
278.2000,-3.09904E+006,336.807
278.1000,-2.74431E+006,336.823
278.0000,-2.54379E+006,336.827
277.9000,-2.2613E+006,336.825
277.8000,-1.81498E+006,336.828
277.7000,-1.55929E+006,336.828
277.6000,-1.48245E+006,336.849
277.5000,-1.37088E+006,336.871
277.4000,-1.41061E+006,336.892
277.3000,-1.57481E+006,336.911
277.2000,-1.77852E+006,336.929
277.1000,-1.93458E+006,336.949
277.0000,-2.01356E+006,336.971
276.9000,-2.11665E+006,336.993
276.8000,-2.26851E+006,336.998
276.7000,-2.40196E+006,336.999
276.6000,-2.55802E+006,337.002
276.5000,-2.65557E+006,337.01
276.4000,-2.72092E+006,337.014
276.3000,-2.78813E+006,337.018
276.2000,-2.88478E+006,337.018
276.1000,-3.1809E+006,337.018
276.0000,-3.17178E+006,337.043
275.9000,-3.08028E+006,337.066
275.8000,-2.73883E+006,337.088
275.7000,-2.72374E+006,337.109
275.6000,-2.76824E+006,337.135
275.5000,-2.49923E+006,337.163
275.4000,-2.52368E+006,337.188
275.3000,-2.48049E+006,337.213
275.2000,-2.50787E+006,337.223
275.1000,-2.67171E+006,337.229
275.0000,-3.23774E+006,337.235
274.9000,-3.30658E+006,337.247
274.8000,-3.06861E+006,337.258
274.7000,-3.36549E+006,337.26
274.6000,-3.47061E+006,337.265
274.5000,-3.22395E+006,337.277
274.4000,-3.144E+006,337.284
274.3000,-2.98554E+006,337.293
274.2000,-2.52359E+006,337.302
274.1000,-2.40989E+006,337.307
274.0000,-2.50594E+006,337.31
273.9000,-2.59321E+006,337.32
273.8000,-2.55134E+006,337.337
273.7000,-2.60479E+006,337.356
273.6000,-2.93187E+006,337.371
273.5000,-2.91438E+006,337.39
273.4000,-3.1275E+006,337.409
273.3000,-3.17908E+006,337.435
273.2000,-3.40659E+006,337.455
273.1000,-3.45097E+006,337.476
273.0000,-3.69152E+006,337.493
272.9000,-3.89351E+006,337.512
272.8000,-3.95397E+006,337.53
272.7000,-4.0719E+006,337.551
272.6000,-4.03949E+006,337.569
272.5000,-3.99981E+006,337.588
272.4000,-3.84269E+006,337.606
272.3000,-3.66308E+006,337.625
272.2000,-3.50695E+006,337.643
272.1000,-3.12686E+006,337.662
272.0000,-3.02918E+006,337.682
271.9000,-2.65762E+006,337.702
271.8000,-2.31148E+006,337.719
271.7000,-2.1627E+006,337.735
271.6000,-1.9714E+006,337.747
271.5000,-2.09E+006,337.755
271.4000,-1.98744E+006,337.772
271.3000,-2.08736E+006,337.783
271.2000,-2.06047E+006,337.788
271.1000,-1.96294E+006,337.801
271.0000,-2.14716E+006,337.815
270.9000,-2.26839E+006,337.815
270.8000,-2.47084E+006,337.813
270.7000,-2.24232E+006,337.818
270.6000,-2.20444E+006,337.818
270.5000,-2.09509E+006,337.813
270.4000,-2.12442E+006,337.809
270.3000,-2.08168E+006,337.8
270.2000,-2.02889E+006,337.792
270.1000,-1.94988E+006,337.79
270.0000,-1.91257E+006,337.792
269.9000,-2.16384E+006,337.797
269.8000,-2.45073E+006,337.806
269.7000,-2.6577E+006,337.826
269.6000,-2.55036E+006,337.854
269.5000,-2.59304E+006,337.878
269.4000,-2.86908E+006,337.888
269.3000,-2.64338E+006,337.908
269.2000,-2.40467E+006,337.935
269.1000,-2.1935E+006,337.97
269.0000,-2.21743E+006,337.999
268.9000,-2.01742E+006,338.029
268.8000,-1.9379E+006,338.05
268.7000,-1.84527E+006,338.081
268.6000,-1.5145E+006,338.121
268.5000,-1.53294E+006,338.171
268.4000,-1.64807E+006,338.225
268.3000,-1.6362E+006,338.263
268.2000,-1.29807E+006,338.304
268.1000,-1.18446E+006,338.332
268.0000,-982976,338.376
267.9000,-822898,338.421
267.8000,-924341,338.481
267.7000,-966832,338.536
267.6000,-1.03608E+006,338.585
267.5000,-1.29911E+006,338.629
267.4000,-1.52963E+006,338.66
267.3000,-1.80973E+006,338.705
267.2000,-2.15161E+006,338.743
267.1000,-2.3355E+006,338.792
267.0000,-2.41065E+006,338.832
266.9000,-2.46395E+006,338.871
266.8000,-2.46301E+006,338.904
266.7000,-2.32938E+006,338.936
266.6000,-2.27211E+006,338.993
266.5000,-2.13476E+006,339.059
266.4000,-2.05061E+006,339.127
266.3000,-2.21185E+006,339.182
266.2000,-2.30264E+006,339.235
266.1000,-2.51843E+006,339.281
266.0000,-2.72951E+006,339.317
265.9000,-3.0031E+006,339.37
265.8000,-2.89788E+006,339.424
265.7000,-2.91208E+006,339.473
265.6000,-3.01366E+006,339.52
265.5000,-2.74855E+006,339.574
265.4000,-2.67805E+006,339.615
265.3000,-2.61952E+006,339.658
265.2000,-2.63877E+006,339.719
265.1000,-2.64358E+006,339.784
265.0000,-2.66699E+006,339.851
264.9000,-2.75542E+006,339.921
264.8000,-2.78828E+006,339.97
264.7000,-3.01648E+006,340.024
264.6000,-3.38119E+006,340.081
264.5000,-3.54929E+006,340.15
264.4000,-3.69794E+006,340.223
264.3000,-3.53474E+006,340.286
264.2000,-3.50072E+006,340.351
264.1000,-3.57623E+006,340.415
264.0000,-3.49054E+006,340.493
263.9000,-3.48781E+006,340.571
263.8000,-3.29448E+006,340.639
263.7000,-3.06531E+006,340.712
263.6000,-2.79762E+006,340.793
263.5000,-2.8652E+006,340.88
263.4000,-2.89253E+006,340.971
263.3000,-2.71491E+006,341.039
263.2000,-2.49291E+006,341.11
263.1000,-2.33249E+006,341.188
263.0000,-2.24293E+006,341.279
262.9000,-2.46866E+006,341.359
262.8000,-2.70637E+006,341.432
262.7000,-2.77044E+006,341.495
262.6000,-2.91929E+006,341.552
262.5000,-2.89165E+006,341.626
262.4000,-2.86285E+006,341.696
262.3000,-2.76883E+006,341.769
262.2000,-2.68002E+006,341.839
262.1000,-2.26774E+006,341.921
262.0000,-2.11029E+006,341.992
261.9000,-2.02234E+006,342.07
261.8000,-1.90211E+006,342.141
261.7000,-1.88933E+006,342.202
261.6000,-2.01422E+006,342.28
261.5000,-2.14029E+006,342.361
261.4000,-2.22266E+006,342.435
261.3000,-2.20141E+006,342.495
261.2000,-2.06507E+006,342.574
261.1000,-2.00491E+006,342.655
261.0000,-1.96022E+006,342.744
260.9000,-1.82111E+006,342.834
260.8000,-1.77582E+006,342.926
260.7000,-1.45686E+006,343.015
260.6000,-1.38357E+006,343.092
260.5000,-1.40903E+006,343.182
260.4000,-1.78529E+006,343.274
260.3000,-1.75479E+006,343.358
260.2000,-1.60109E+006,343.43
260.1000,-1.36956E+006,343.511
260.0000,-1.29241E+006,343.594
259.9000,-1.69011E+006,343.658
259.8000,-1.96762E+006,343.74
259.7000,-2.02494E+006,343.833
259.6000,-1.80008E+006,343.908
259.5000,-1.59331E+006,343.986
259.4000,-1.55824E+006,344.072
259.3000,-1.93844E+006,344.148
259.2000,-2.17644E+006,344.227
259.1000,-2.14402E+006,344.315
259.0000,-1.92894E+006,344.395
258.9000,-1.78173E+006,344.467
258.8000,-2.01981E+006,344.55
258.7000,-2.41978E+006,344.627
258.6000,-2.55808E+006,344.715
258.5000,-2.40546E+006,344.814
258.4000,-2.22256E+006,344.898
258.3000,-2.07191E+006,344.979
258.2000,-2.08538E+006,345.067
258.1000,-2.17073E+006,345.153
258.0000,-2.0629E+006,345.248
257.9000,-1.72937E+006,345.352
257.8000,-1.54087E+006,345.443
257.7000,-1.7091E+006,345.528
257.6000,-1.93563E+006,345.628
257.5000,-2.18734E+006,345.721
257.4000,-2.3778E+006,345.82
257.3000,-2.36703E+006,345.918
257.2000,-2.14321E+006,346.019
257.1000,-2.12216E+006,346.119
257.0000,-2.14191E+006,346.222
256.9000,-2.15206E+006,346.328
256.8000,-2.1113E+006,346.415
256.7000,-2.01313E+006,346.511
256.6000,-1.84737E+006,346.606
256.5000,-1.55575E+006,346.699
256.4000,-1.51971E+006,346.793
256.3000,-1.287E+006,346.875
256.2000,-957740,346.949
256.1000,-714225,347.023
256.0000,-518479,347.092
255.9000,-710932,347.165
255.8000,-758900,347.238
255.7000,-1.26159E+006,347.326
255.6000,-1.61949E+006,347.419
255.5000,-1.97978E+006,347.504
255.4000,-2.45089E+006,347.592
255.3000,-2.72575E+006,347.67
255.2000,-2.65506E+006,347.759
255.1000,-2.25228E+006,347.855
255.0000,-2.06443E+006,347.957
254.9000,-1.73887E+006,348.034
254.8000,-1.4067E+006,348.097
254.7000,-1.3163E+006,348.159
254.6000,-1.1476E+006,348.23
254.5000,-1.14386E+006,348.319
254.4000,-1.21407E+006,348.401
254.3000,-1.34926E+006,348.483
254.2000,-1.39935E+006,348.554
254.1000,-1.3118E+006,348.646
254.0000,-1.36517E+006,348.745
253.9000,-1.26731E+006,348.858
253.8000,-1.37189E+006,348.962
253.7000,-1.41611E+006,349.06
253.6000,-1.40983E+006,349.155
253.5000,-1.54016E+006,349.258
253.4000,-1.61216E+006,349.355
253.3000,-1.52124E+006,349.455
253.2000,-1.48742E+006,349.556
253.1000,-1.44607E+006,349.657
253.0000,-1.48661E+006,349.743
252.9000,-1.55883E+006,349.83
252.8000,-1.7403E+006,349.917
252.7000,-1.88742E+006,350.002
252.6000,-1.95551E+006,350.087
252.5000,-1.92952E+006,350.173
252.4000,-2.15946E+006,350.241
252.3000,-2.44577E+006,350.301
252.2000,-2.47329E+006,350.365
252.1000,-2.24162E+006,350.443
252.0000,-1.81348E+006,350.523
251.9000,-1.46764E+006,350.602
251.8000,-1.21363E+006,350.691
251.7000,-1.29918E+006,350.773
251.6000,-1.17487E+006,350.868
251.5000,-1.17783E+006,350.963
251.4000,-1.17952E+006,351.065
251.3000,-1.20115E+006,351.168
251.2000,-1.34332E+006,351.266
251.1000,-1.54252E+006,351.369
251.0000,-1.83517E+006,351.466
250.9000,-2.04399E+006,351.577
250.8000,-2.12246E+006,351.684
250.7000,-2.02049E+006,351.798
250.6000,-1.7985E+006,351.905
250.5000,-1.58034E+006,351.997
250.4000,-1.55683E+006,352.089
250.3000,-1.48117E+006,352.178
250.2000,-1.39319E+006,352.276
250.1000,-1.05685E+006,352.361
250.0000,-879927,352.442
249.9000,-753234,352.525
249.8000,-662427,352.608
249.7000,-789790,352.709
249.6000,-621484,352.806
249.5000,-499602,352.896
249.4000,-400785,352.989
249.3000,-595649,353.086
249.2000,-824960,353.18
249.1000,-982691,353.278
249.0000,-1.00467E+006,353.374
248.9000,-998665,353.459
248.8000,-861178,353.553
248.7000,-890697,353.651
248.6000,-917650,353.744
248.5000,-714049,353.844
248.4000,-346937,353.942
248.3000,-120956,354.026
248.2000,-140687,354.117
248.1000,-236316,354.219
248.0000,-334805,354.318
247.9000,-332868,354.422
247.8000,-216129,354.522
247.7000,-372334,354.605
247.6000,-677027,354.694
247.5000,-786073,354.798
247.4000,-978635,354.894
247.3000,-1.19199E+006,354.972
247.2000,-1.64462E+006,355.044
247.1000,-2.09493E+006,355.109
247.0000,-2.43239E+006,355.18
246.9000,-2.52072E+006,355.267
246.8000,-2.58562E+006,355.351
246.7000,-2.80415E+006,355.418
246.6000,-2.77057E+006,355.485
246.5000,-2.61146E+006,355.571
246.4000,-2.21869E+006,355.672
246.3000,-1.83018E+006,355.775
246.2000,-1.60282E+006,355.871
246.1000,-1.85538E+006,355.962
246.0000,-1.70403E+006,356.056
245.9000,-1.50639E+006,356.156
245.8000,-1.40022E+006,356.264
245.7000,-1.23433E+006,356.374
245.6000,-1.20407E+006,356.477
245.5000,-1.57464E+006,356.572
245.4000,-1.56508E+006,356.68
245.3000,-1.4548E+006,356.784
245.2000,-1.31475E+006,356.901
245.1000,-1.34288E+006,357.014
245.0000,-1.49543E+006,357.119
244.9000,-2.22045E+006,357.215
244.8000,-2.59862E+006,357.311
244.7000,-2.97405E+006,357.418
244.6000,-3.50954E+006,357.525
244.5000,-4.16254E+006,357.632
244.4000,-4.33174E+006,357.737
244.3000,-4.63729E+006,357.837
244.2000,-4.60589E+006,357.94
244.1000,-4.22933E+006,358.052
244.0000,-4.01343E+006,358.16
243.9000,-3.64362E+006,358.268
243.8000,-3.13099E+006,358.372
243.7000,-2.48056E+006,358.481
243.6000,-2.2245E+006,358.588
243.5000,-2.14397E+006,358.697
243.4000,-2.00781E+006,358.823
243.3000,-1.90342E+006,358.949
243.2000,-1.70323E+006,359.073
243.1000,-1.67428E+006,359.193
243.0000,-1.65007E+006,359.312
242.9000,-1.86011E+006,359.428
242.8000,-1.9286E+006,359.54
242.7000,-2.10249E+006,359.65
242.6000,-2.28371E+006,359.754
242.5000,-2.09635E+006,359.851
242.4000,-1.89377E+006,359.953
242.3000,-1.99396E+006,360.061
242.2000,-1.70889E+006,360.177
242.1000,-1.67322E+006,360.296
242.0000,-1.59008E+006,360.421
241.9000,-1.7525E+006,360.551
241.8000,-1.51394E+006,360.678
241.7000,-1.62594E+006,360.8
241.6000,-2.17027E+006,360.922
241.5000,-2.03927E+006,361.048
241.4000,-2.10488E+006,361.165
241.3000,-2.25655E+006,361.282
241.2000,-2.12536E+006,361.4
241.1000,-2.06075E+006,361.516
241.0000,-1.76677E+006,361.639
240.9000,-1.63031E+006,361.766
240.8000,-1.4781E+006,361.892
240.7000,-1.48174E+006,362.012
240.6000,-1.85438E+006,362.138
240.5000,-2.1845E+006,362.27
240.4000,-2.54382E+006,362.397
240.3000,-2.4336E+006,362.526
240.2000,-2.56309E+006,362.656
240.1000,-2.86372E+006,362.793
240.0000,-3.00275E+006,362.941
239.9000,-2.85738E+006,363.099
239.8000,-2.51962E+006,363.254
239.7000,-1.88401E+006,363.402
239.6000,-1.4513E+006,363.552
239.5000,-1.15047E+006,363.71
239.4000,-1.04313E+006,363.871
239.3000,-692749,364.036
239.2000,-464135,364.194
239.1000,-647651,364.342
239.0000,-1.05175E+006,364.49
238.9000,-1.61622E+006,364.646
238.8000,-2.30855E+006,364.802
238.7000,-2.63508E+006,364.959
238.6000,-2.83616E+006,365.11
238.5000,-3.314E+006,365.254
238.4000,-3.68167E+006,365.396
238.3000,-3.72532E+006,365.543
238.2000,-3.57908E+006,365.697
238.1000,-3.62649E+006,365.85
238.0000,-3.48182E+006,366.006
237.9000,-3.29636E+006,366.165
237.8000,-3.2662E+006,366.318
237.7000,-2.93109E+006,366.476
237.6000,-2.8341E+006,366.637
237.5000,-2.47559E+006,366.806
237.4000,-2.30096E+006,366.978
237.3000,-2.22795E+006,367.153
237.2000,-1.91655E+006,367.332
237.1000,-1.8346E+006,367.495
237.0000,-1.75215E+006,367.663
236.9000,-1.69626E+006,367.837
236.8000,-1.86618E+006,368.008
236.7000,-1.9464E+006,368.182
236.6000,-2.23429E+006,368.344
236.5000,-2.30329E+006,368.504
236.4000,-2.56149E+006,368.663
236.3000,-2.52534E+006,368.837
236.2000,-2.50929E+006,369.013
236.1000,-2.52437E+006,369.184
236.0000,-2.64405E+006,369.359
235.9000,-2.43381E+006,369.537
235.8000,-2.54852E+006,369.713
235.7000,-2.49766E+006,369.89
235.6000,-2.32926E+006,370.065
235.5000,-2.002E+006,370.24
235.4000,-1.69215E+006,370.42
235.3000,-1.78708E+006,370.6
235.2000,-1.68919E+006,370.781
235.1000,-2.36662E+006,370.952
235.0000,-2.61147E+006,371.13
234.9000,-2.53729E+006,371.314
234.8000,-2.85561E+006,371.502
234.7000,-3.29446E+006,371.697
234.6000,-3.54186E+006,371.891
234.5000,-3.31785E+006,372.084
234.4000,-3.3627E+006,372.274
234.3000,-3.1282E+006,372.467
234.2000,-2.91744E+006,372.661
234.1000,-3.23592E+006,372.854
234.0000,-3.04969E+006,373.047
233.9000,-2.84447E+006,373.234
233.8000,-3.15531E+006,373.415
233.7000,-3.46551E+006,373.597
233.6000,-3.45915E+006,373.789
233.5000,-3.43746E+006,373.984
233.4000,-3.49392E+006,374.176
233.3000,-3.55022E+006,374.373
233.2000,-3.99497E+006,374.57
233.1000,-4.37445E+006,374.759
233.0000,-4.25667E+006,374.958
232.9000,-4.40686E+006,375.153
232.8000,-4.90345E+006,375.347
232.7000,-4.9261E+006,375.546
232.6000,-4.92612E+006,375.746
232.5000,-4.61688E+006,375.951
232.4000,-4.2637E+006,376.148
232.3000,-4.1504E+006,376.353
232.2000,-4.3355E+006,376.552
232.1000,-4.61506E+006,376.754
232.0000,-4.62842E+006,376.953
231.9000,-4.53827E+006,377.155
231.8000,-4.43346E+006,377.352
231.7000,-4.61807E+006,377.547
231.6000,-4.92619E+006,377.745
231.5000,-4.9645E+006,377.935
231.4000,-4.7806E+006,378.134
231.3000,-4.31748E+006,378.334
231.2000,-4.23453E+006,378.532
231.1000,-4.46458E+006,378.724
231.0000,-4.95318E+006,378.913
230.9000,-5.1259E+006,379.107
230.8000,-4.88164E+006,379.301
230.7000,-4.81904E+006,379.502
230.6000,-4.71139E+006,379.701
230.5000,-4.61673E+006,379.907
230.4000,-4.71545E+006,380.112
230.3000,-4.82413E+006,380.324
230.2000,-4.63228E+006,380.542
230.1000,-4.6764E+006,380.758
230.0000,-4.58724E+006,380.977
229.9000,-4.73222E+006,381.189
229.8000,-5.26256E+006,381.398
229.7000,-5.16257E+006,381.605
229.6000,-5.129E+006,381.81
229.5000,-4.96256E+006,382.01
229.4000,-4.66094E+006,382.203
229.3000,-4.39986E+006,382.393
229.2000,-4.89978E+006,382.57
229.1000,-5.15031E+006,382.749
229.0000,-4.80206E+006,382.943
228.9000,-4.92578E+006,383.134
228.8000,-5.05086E+006,383.329
228.7000,-5.1241E+006,383.538
228.6000,-5.34281E+006,383.753
228.5000,-5.4569E+006,383.978
228.4000,-5.24954E+006,384.212
228.3000,-5.35781E+006,384.453
228.2000,-5.44039E+006,384.692
228.1000,-5.67955E+006,384.939
228.0000,-5.66141E+006,385.188
227.9000,-5.63297E+006,385.429
227.8000,-5.82711E+006,385.663
227.7000,-6.18875E+006,385.903
227.6000,-6.24944E+006,386.141
227.5000,-5.67905E+006,386.382
227.4000,-5.27497E+006,386.613
227.3000,-4.998E+006,386.845
227.2000,-4.5808E+006,387.075
227.1000,-4.18894E+006,387.305
227.0000,-3.89327E+006,387.534
226.9000,-3.57967E+006,387.753
226.8000,-3.59868E+006,387.972
226.7000,-3.72691E+006,388.193
226.6000,-3.62737E+006,388.419
226.5000,-3.73945E+006,388.639
226.4000,-4.14476E+006,388.854
226.3000,-4.68222E+006,389.067
226.2000,-5.3591E+006,389.284
226.1000,-5.55717E+006,389.51
226.0000,-5.65607E+006,389.733
225.9000,-5.84421E+006,389.951
225.8000,-6.21102E+006,390.167
225.7000,-6.57337E+006,390.382
225.6000,-7.0953E+006,390.597
225.5000,-7.30542E+006,390.814
225.4000,-7.18144E+006,391.034
225.3000,-7.14481E+006,391.259
225.2000,-7.1993E+006,391.486
225.1000,-7.06872E+006,391.712
225.0000,-6.71463E+006,391.939
224.9000,-6.65053E+006,392.164
224.8000,-6.24063E+006,392.393
224.7000,-5.78751E+006,392.621
224.6000,-5.79955E+006,392.847
224.5000,-5.74464E+006,393.07
224.4000,-5.90018E+006,393.282
224.3000,-5.75153E+006,393.5
224.2000,-6.11E+006,393.716
224.1000,-5.94145E+006,393.938
224.0000,-5.74371E+006,394.157
223.9000,-5.73438E+006,394.373
223.8000,-5.92333E+006,394.592
223.7000,-6.21796E+006,394.806
223.6000,-6.03721E+006,395.029
223.5000,-5.709E+006,395.256
223.4000,-5.55493E+006,395.48
223.3000,-6.3106E+006,395.689
223.2000,-7.18481E+006,395.896
223.1000,-7.82542E+006,396.112
223.0000,-8.20207E+006,396.326
222.9000,-8.33879E+006,396.543
222.8000,-8.55922E+006,396.756
222.7000,-9.07544E+006,396.969
222.6000,-9.31872E+006,397.18
222.5000,-8.78012E+006,397.402
222.4000,-8.32403E+006,397.622
222.3000,-8.19935E+006,397.837
222.2000,-7.89596E+006,398.055
222.1000,-7.75713E+006,398.271
222.0000,-7.9879E+006,398.484
221.9000,-7.62987E+006,398.696
221.8000,-7.55481E+006,398.907
221.7000,-7.82311E+006,399.12
221.6000,-7.74073E+006,399.338
221.5000,-7.38001E+006,399.561
221.4000,-6.79776E+006,399.784
221.3000,-6.47131E+006,400.004
221.2000,-5.75961E+006,400.231
221.1000,-5.58167E+006,400.452
221.0000,-5.64006E+006,400.669
220.9000,-5.54904E+006,400.884
220.8000,-5.71383E+006,401.099
220.7000,-6.15088E+006,401.301
220.6000,-6.28328E+006,401.509
220.5000,-5.96207E+006,401.729
220.4000,-5.6411E+006,401.943
220.3000,-5.83068E+006,402.156
220.2000,-5.96838E+006,402.375
220.1000,-6.36009E+006,402.589
220.0000,-6.77716E+006,402.803
219.9000,-6.79593E+006,403.027
219.8000,-6.75567E+006,403.255
219.7000,-7.39836E+006,403.468
219.6000,-8.3243E+006,403.676
219.5000,-9.0773E+006,403.888
219.4000,-9.18764E+006,404.107
219.3000,-8.94376E+006,404.328
219.2000,-8.79345E+006,404.548
219.1000,-8.43274E+006,404.77
219.0000,-8.23362E+006,404.99
218.9000,-8.18041E+006,405.205
218.8000,-8.34948E+006,405.419
218.7000,-8.36186E+006,405.631
218.6000,-8.40164E+006,405.845
218.5000,-8.16378E+006,406.058
218.4000,-7.84289E+006,406.277
218.3000,-7.45788E+006,406.49
218.2000,-7.50104E+006,406.702
218.1000,-7.57279E+006,406.915
218.0000,-6.80328E+006,407.141
217.9000,-6.42912E+006,407.366
217.8000,-6.443E+006,407.579
217.7000,-6.48867E+006,407.796
217.6000,-6.61968E+006,408.008
217.5000,-6.65938E+006,408.229
217.4000,-6.64077E+006,408.446
217.3000,-6.10921E+006,408.667
217.2000,-5.84578E+006,408.888
217.1000,-5.66191E+006,409.1
217.0000,-5.08736E+006,409.32
216.9000,-4.93637E+006,409.539
216.8000,-5.06887E+006,409.757
216.7000,-5.23913E+006,409.968
216.6000,-5.78633E+006,410.181
216.5000,-6.6189E+006,410.393
216.4000,-7.46263E+006,410.597
216.3000,-7.56036E+006,410.808
216.2000,-7.94642E+006,411.023
216.1000,-8.61747E+006,411.234
216.0000,-8.82027E+006,411.449
215.9000,-8.37614E+006,411.67
215.8000,-7.47188E+006,411.892
215.7000,-6.88033E+006,412.112
215.6000,-6.31484E+006,412.337
215.5000,-6.19656E+006,412.562
215.4000,-5.9112E+006,412.789
215.3000,-5.67585E+006,413.013
215.2000,-5.267E+006,413.236
215.1000,-5.61388E+006,413.465
215.0000,-6.65136E+006,413.686
214.9000,-7.48393E+006,413.91
214.8000,-7.53456E+006,414.141
214.7000,-7.65263E+006,414.372
214.6000,-7.79752E+006,414.605
214.5000,-7.23838E+006,414.846
214.4000,-6.83794E+006,415.084
214.3000,-6.74271E+006,415.315
214.2000,-6.09476E+006,415.551
214.1000,-5.46267E+006,415.788
214.0000,-5.6223E+006,416.017
213.9000,-5.93124E+006,416.248
213.8000,-6.0268E+006,416.479
213.7000,-6.16148E+006,416.714
213.6000,-6.68072E+006,416.944
213.5000,-6.27964E+006,417.187
213.4000,-6.19549E+006,417.428
213.3000,-6.24731E+006,417.673
213.2000,-6.21689E+006,417.921
213.1000,-5.61391E+006,418.172
213.0000,-5.53118E+006,418.421
212.9000,-5.94412E+006,418.666
212.8000,-5.77636E+006,418.914
212.7000,-5.84256E+006,419.159
212.6000,-6.44781E+006,419.401
212.5000,-7.07143E+006,419.641
212.4000,-7.3062E+006,419.889
212.3000,-7.78351E+006,420.132
212.2000,-8.49146E+006,420.374
212.1000,-8.53183E+006,420.626
212.0000,-8.86611E+006,420.885
211.9000,-9.25267E+006,421.146
211.8000,-9.20561E+006,421.407
211.7000,-8.86554E+006,421.674
211.6000,-8.88839E+006,421.94
211.5000,-8.52718E+006,422.208
211.4000,-7.7551E+006,422.485
211.3000,-6.8909E+006,422.763
211.2000,-6.81148E+006,423.028
211.1000,-6.75194E+006,423.296
211.0000,-6.73333E+006,423.57
210.9000,-6.84627E+006,423.845
210.8000,-6.05059E+006,424.129
210.7000,-5.56451E+006,424.416
210.6000,-5.38303E+006,424.699
210.5000,-5.4147E+006,424.983
210.4000,-5.56656E+006,425.269
210.3000,-5.60283E+006,425.561
210.2000,-5.81385E+006,425.847
210.1000,-5.65633E+006,426.142
210.0000,-6.19568E+006,426.429
209.9000,-7.37158E+006,426.71
209.8000,-7.84617E+006,426.993
209.7000,-8.09913E+006,427.283
209.6000,-7.952E+006,427.576
209.5000,-7.88636E+006,427.871
209.4000,-7.86992E+006,428.166
209.3000,-7.53051E+006,428.461
209.2000,-7.55252E+006,428.759
209.1000,-7.11701E+006,429.061
209.0000,-7.27523E+006,429.358
208.9000,-7.69106E+006,429.657
208.8000,-8.00822E+006,429.953
208.7000,-8.15551E+006,430.253
208.6000,-8.4184E+006,430.558
208.5000,-8.81038E+006,430.863
208.4000,-8.78926E+006,431.17
208.3000,-8.23517E+006,431.487
208.2000,-7.96465E+006,431.804
208.1000,-8.44749E+006,432.112
208.0000,-8.65848E+006,432.424
207.9000,-8.52474E+006,432.739
207.8000,-7.23715E+006,433.068
207.7000,-5.87381E+006,433.393
207.6000,-5.50457E+006,433.714
207.5000,-5.53345E+006,434.025
207.4000,-5.78165E+006,434.331
207.3000,-4.95378E+006,434.649
207.2000,-4.76042E+006,434.961
207.1000,-4.82646E+006,435.27
207.0000,-5.36236E+006,435.575
206.9000,-6.80436E+006,435.87
206.8000,-7.11675E+006,436.174
206.7000,-7.64328E+006,436.479
206.6000,-7.99728E+006,436.788
206.5000,-7.47659E+006,437.106
206.4000,-6.69361E+006,437.43
206.3000,-5.84604E+006,437.755
206.2000,-5.97678E+006,438.064
206.1000,-5.85868E+006,438.372
206.0000,-5.87574E+006,438.679
205.9000,-6.25046E+006,438.983
205.8000,-5.8813E+006,439.294
205.7000,-6.17592E+006,439.601
205.6000,-7.19005E+006,439.904
205.5000,-7.95867E+006,440.211
205.4000,-8.17817E+006,440.527
205.3000,-8.26057E+006,440.85
205.2000,-8.21761E+006,441.177
205.1000,-7.69136E+006,441.512
205.0000,-7.30145E+006,441.848
204.9000,-7.17732E+006,442.181
204.8000,-7.18173E+006,442.515
204.7000,-6.93602E+006,442.855
204.6000,-6.31141E+006,443.198
204.5000,-5.98308E+006,443.541
204.4000,-5.36626E+006,443.887
204.3000,-5.50117E+006,444.23
204.2000,-5.42852E+006,444.576
204.1000,-4.76371E+006,444.93
204.0000,-4.22054E+006,445.285
203.9000,-3.87134E+006,445.635
203.8000,-4.12182E+006,445.982
203.7000,-4.51775E+006,446.33
203.6000,-4.45576E+006,446.686
203.5000,-4.14896E+006,447.045
203.4000,-3.67904E+006,447.408
203.3000,-3.76292E+006,447.77
203.2000,-3.98278E+006,448.136
203.1000,-4.22638E+006,448.504
203.0000,-3.80948E+006,448.887
202.9000,-3.20398E+006,449.271
202.8000,-2.74721E+006,449.652
202.7000,-2.92345E+006,450.034
202.6000,-3.15273E+006,450.417
202.5000,-3.56114E+006,450.794
202.4000,-3.55369E+006,451.175
202.3000,-2.96395E+006,451.565
202.2000,-2.01834E+006,451.962
202.1000,-1.85093E+006,452.356
202.0000,-1.91973E+006,452.753
201.9000,-1.60906E+006,453.16
201.8000,-879256,453.575
201.7000,23473,453.999
201.6000,242431,454.426
201.5000,17799.2,454.853
201.4000,-744714,455.276
201.3000,-1.27523E+006,455.707
201.2000,-840739,456.152
201.1000,-101264,456.603
201.0000,-495204,457.05
200.9000,-639014,457.507
200.8000,-1.13578E+006,457.965
200.7000,-1.39986E+006,458.436
200.6000,-1.67802E+006,458.919
200.5000,-979220,459.423
200.4000,-285544,459.936
200.3000,-142209,460.452
200.2000,-157502,460.976
200.1000,-658766,461.496
200.0000,-808468,462.027
199.9000,130690,462.565
199.8000,1.18311E+006,463.103
199.7000,1.44026E+006,463.626
199.6000,880598,464.144
199.5000,805106,464.669
199.4000,1.15942E+006,465.198
199.3000,1.65077E+006,465.738
199.2000,2.5618E+006,466.291
199.1000,3.04682E+006,466.849
199.0000,3.63162E+006,467.417
198.9000,4.16362E+006,468.004
198.8000,4.81405E+006,468.61
198.7000,5.21187E+006,469.238
198.6000,5.01287E+006,469.875
198.5000,5.22906E+006,470.533
198.4000,5.01608E+006,471.196
198.3000,5.53456E+006,471.886
198.2000,5.30964E+006,472.598
198.1000,4.24322E+006,473.334
198.0000,3.39384E+006,474.101
197.9000,4.29119E+006,474.898
197.8000,4.57334E+006,475.705
197.7000,4.72154E+006,476.531
197.6000,5.26306E+006,477.367
197.5000,4.86474E+006,478.198
197.4000,4.43318E+006,479.013
197.3000,4.72223E+006,479.811
197.2000,5.07416E+006,480.566
197.1000,4.83501E+006,481.289
197.0000,4.14187E+006,481.996
196.9000,4.96267E+006,482.707
196.8000,5.31692E+006,483.421
196.7000,6.00957E+006,484.152
196.6000,6.30781E+006,484.908
196.5000,6.63879E+006,485.704
196.4000,6.68228E+006,486.556
196.3000,6.73956E+006,487.475
196.2000,7.11869E+006,488.455
196.1000,6.06454E+006,489.481
196.0000,4.69713E+006,490.574
195.9000,5.062E+006,491.765
195.8000,5.00792E+006,493.059
195.7000,5.09316E+006,494.474
195.6000,6.35104E+006,496.015
195.5000,8.39054E+006,497.66
195.4000,8.3966E+006,499.362
195.3000,9.86758E+006,501.122
195.2000,1.18879E+007,502.906
195.1000,1.23405E+007,504.644
195.0000,1.2815E+007,506.279
194.9000,1.30745E+007,507.757
194.8000,1.27506E+007,509.053
194.7000,1.17823E+007,510.183
194.6000,1.23733E+007,511.215
194.5000,1.24324E+007,512.158
194.4000,1.21964E+007,513.059
194.3000,1.16397E+007,513.96
194.2000,1.19907E+007,514.952
194.1000,1.23279E+007,516.079
194.0000,1.36361E+007,517.413
193.9000,1.43218E+007,518.971
193.8000,1.39344E+007,520.753
193.7000,1.31402E+007,522.805
193.6000,1.35202E+007,525.17
193.5000,1.34316E+007,527.883
193.4000,1.32816E+007,530.968
193.3000,1.35838E+007,534.42
193.2000,1.48541E+007,538.185
193.1000,1.52892E+007,542.15
193.0000,1.55922E+007,546.228
192.9000,1.54719E+007,550.287
192.8000,1.4928E+007,554.172
192.7000,1.59792E+007,557.692
192.6000,1.69016E+007,560.668
192.5000,1.81621E+007,563.051
192.4000,1.87576E+007,564.903
192.3000,1.79861E+007,566.31
192.2000,1.69518E+007,567.394
192.1000,1.68997E+007,568.29
192.0000,1.81906E+007,569.162
191.9000,1.70463E+007,570.202
191.8000,1.60398E+007,571.665
191.7000,1.80354E+007,573.715
191.6000,1.86645E+007,576.342
191.5000,1.94674E+007,579.548
191.4000,2.02733E+007,583.365
191.3000,1.92352E+007,587.832
191.2000,1.85248E+007,592.95
191.1000,1.89697E+007,598.685
191.0000,1.87867E+007,604.906
190.9000,1.89643E+007,611.478
190.8000,1.58489E+007,618.21
190.7000,1.40965E+007,624.98
190.6000,1.41505E+007,631.595
190.5000,1.50535E+007,637.721
190.4000,1.54272E+007,643.101
190.3000,1.84674E+007,647.658
190.2000,2.17429E+007,651.404
190.1000,1.40698E+007,654.456
190.0000,3.7037E+006,656.986

##### Extended Information
[Comments]
Sample name,ACE2_seo_0.6uM
Comment
User
Division
Company,CSIR-IMTECH

[Detailed Information]
Creation date,4/8/2024 5:15 PM

Data array type,Linear data array * 2
Horizontal axis,Wavelength [nm]
Vertical axis(1),Mol. Ellip.
Vertical axis(2),HT [V]
Start,350 nm
End,190 nm
Data interval,0.1 nm
Data points,1601    

[Measurement Information]
Instrument Name,JASCO CD
Model Name,J-815
Serial No.,B063061168

Accessory,PTC-423S
Accessory S/N,C013945-01
  Temperature,36.05 C
  Control Sonsor,Cell
  Monitor Sensor,Cell
  Start Mode,Start immediately
  Cell Length,10 mm

Measurement date,4/8/2024 5:14 PM

Photometric Mode,CD, HT
Measure Range,350 - 190 nm
Data pitch,0.1 nm
Sensitivity,Standard
D.I.T.,1 sec
Bandwidth,1.00 nm
Start Mode,Immediately
Scanning Speed,50 nm/min
Baseline Correction,None
Shutter Control,Auto
CD Detector,PMT
PMT Voltage,Auto
Accumulations,3
Concentration,0.27 umol/L

