TITLE,ACE2
DATA TYPE,
ORIGIN,JASCO
OWNER,
DATE,24/04/09
TIME,13:49:24
SPECTROMETER/DATA SYSTEM,
LOCALE,1033
RESOLUTION,
DELTAX,-0.1
XUNITS,NANOMETERS
YUNITS,Mol. Ellip.
Y2UNITS,HT [V]
FIRSTX,  350.0000
LASTX,  190.0000
NPOINTS,    1601
FIRSTY,1859044.12500
MAXY,23409528.00000
MINY,-9162300.00000
XYDATA
350.0000,1.85904E+006,483.169
349.9000,2.77413E+006,482.551
349.8000,2.6618E+006,481.635
349.7000,3.01225E+006,480.706
349.6000,2.51605E+006,480.036
349.5000,730312,479.454
349.4000,-536016,478.566
349.3000,-828234,477.936
349.2000,-1.21302E+006,477.406
349.1000,-1.79007E+006,476.578
349.0000,-2.5901E+006,475.96
348.9000,-2.04204E+006,475.431
348.8000,-1.21116E+006,474.584
348.7000,-103854,473.727
348.6000,443726,473.108
348.5000,609148,472.567
348.4000,1.03787E+006,471.709
348.3000,764017,471.056
348.2000,1.34775E+006,470.486
348.1000,1.62782E+006,469.62
348.0000,868537,468.966
347.9000,94796.6,468.402
347.8000,208297,467.562
347.7000,371009,466.709
347.6000,540797,466.093
347.5000,1.10964E+006,465.578
347.4000,1.98782E+006,464.777
347.3000,1.42376E+006,464.169
347.2000,1.09679E+006,463.659
347.1000,1.40165E+006,462.891
347.0000,1.18371E+006,462.324
346.9000,406756,461.828
346.8000,-13624.3,461.063
346.7000,-486307,460.285
346.6000,-537372,459.712
346.5000,-361770,458.962
346.4000,273674,458.199
346.3000,318951,457.612
346.2000,626821,456.835
346.1000,1.03471E+006,456.04
346.0000,1.29021E+006,455.45
345.9000,1.72166E+006,454.941
345.8000,907368,454.144
345.7000,261376,453.554
345.6000,-211246,453.047
345.5000,-66215,452.315
345.4000,347303,451.787
345.3000,534573,451.347
345.2000,606968,450.65
345.1000,789781,449.946
345.0000,1.54702E+006,449.437
344.9000,2.80164E+006,448.789
344.8000,3.41809E+006,448.119
344.7000,2.63429E+006,447.599
344.6000,2.19504E+006,446.926
344.5000,1.70935E+006,446.24
344.4000,1.30906E+006,445.727
344.3000,1.23505E+006,445.043
344.2000,390333,444.336
344.1000,460427,443.801
344.0000,-940665,443.115
343.9000,-1.30781E+006,442.432
343.8000,-1.51645E+006,441.934
343.7000,-2.14948E+006,441.501
343.6000,-2.67937E+006,440.843
343.5000,-3.30846E+006,440.373
343.4000,-3.94916E+006,439.989
343.3000,-4.03871E+006,439.385
343.2000,-3.8652E+006,438.943
343.1000,-3.24161E+006,438.561
343.0000,-2.67944E+006,437.98
342.9000,-2.47635E+006,437.376
342.8000,-2.59917E+006,436.924
342.7000,-2.14865E+006,436.309
342.6000,-1.92176E+006,435.673
342.5000,-1.63749E+006,435.196
342.4000,-2.0957E+006,434.589
342.3000,-2.07909E+006,433.978
342.2000,-1.98356E+006,433.505
342.1000,-1.97138E+006,432.911
342.0000,-1.3392E+006,432.321
341.9000,-1.25147E+006,431.901
341.8000,-969872,431.345
341.7000,-1.41627E+006,430.776
341.6000,-968168,430.359
341.5000,-535356,429.836
341.4000,-650832,429.304
341.3000,-636288,428.907
341.2000,-668033,428.342
341.1000,-804110,427.76
341.0000,-776308,427.333
340.9000,-280340,426.797
340.8000,-449790,426.24
340.7000,-1.45306E+006,425.796
340.6000,-1.87491E+006,425.239
340.5000,-1.68994E+006,424.676
340.4000,-1.36801E+006,424.271
340.3000,-1.29137E+006,423.734
340.2000,-922095,423.196
340.1000,-784626,422.792
340.0000,-577158,422.296
339.9000,127969,421.803
339.8000,410480,421.434
339.7000,359143,420.968
339.6000,263605,420.5
339.5000,264364,420.182
339.4000,741422,419.734
339.3000,753438,419.258
339.2000,611246,418.736
339.1000,413116,418.262
339.0000,718903,417.778
338.9000,1.036E+006,417.225
338.8000,1.50474E+006,416.718
338.7000,1.30359E+006,416.194
338.6000,1.19248E+006,415.636
338.5000,872235,415.149
338.4000,497954,414.786
338.3000,890317,414.343
338.2000,735327,413.892
338.1000,742531,413.574
338.0000,562377,413.146
337.9000,250944,412.711
337.8000,-21513,412.407
337.7000,-102184,412.021
337.6000,-316043,411.618
337.5000,-660729,411.307
337.4000,-880364,410.902
337.3000,-872289,410.479
337.2000,-1.45946E+006,410.009
337.1000,-1.72146E+006,409.592
337.0000,-1.52272E+006,409.17
336.9000,-1.6197E+006,408.708
336.8000,-1.20418E+006,408.3
336.7000,-440173,407.896
336.6000,-448748,407.448
336.5000,-1.18418E+006,407.034
336.4000,-1.32803E+006,406.748
336.3000,-1.32933E+006,406.353
336.2000,-1.58796E+006,405.948
336.1000,-1.78099E+006,405.646
336.0000,-2.13034E+006,405.263
335.9000,-2.98718E+006,404.854
335.8000,-3.5163E+006,404.403
335.7000,-3.29366E+006,404.002
335.6000,-3.46428E+006,403.593
335.5000,-2.87076E+006,403.18
335.4000,-2.5481E+006,402.82
335.3000,-2.10131E+006,402.462
335.2000,-2.15365E+006,402.072
335.1000,-1.74681E+006,401.736
335.0000,-1.72817E+006,401.51
334.9000,-1.54189E+006,401.189
334.8000,-1.2103E+006,400.856
334.7000,-1.14745E+006,400.486
334.6000,-1.64764E+006,400.159
334.5000,-2.08247E+006,399.822
334.4000,-2.37642E+006,399.426
334.3000,-2.33292E+006,399.06
334.2000,-2.61027E+006,398.678
334.1000,-2.70121E+006,398.266
334.0000,-2.61002E+006,397.907
333.9000,-2.5195E+006,397.641
333.8000,-2.4741E+006,397.298
333.7000,-2.12084E+006,396.95
333.6000,-1.53882E+006,396.577
333.5000,-1.36716E+006,396.252
333.4000,-1.38968E+006,395.928
333.3000,-1.33281E+006,395.589
333.2000,-1.04491E+006,395.299
333.1000,-1.17073E+006,394.999
333.0000,-1.21159E+006,394.675
332.9000,-1.07964E+006,394.384
332.8000,-1.2937E+006,394.037
332.7000,-1.64011E+006,393.73
332.6000,-1.55056E+006,393.415
332.5000,-1.37819E+006,393.078
332.4000,-1.35671E+006,392.779
332.3000,-1.11216E+006,392.472
332.2000,-1.0975E+006,392.108
332.1000,-1.29287E+006,391.773
332.0000,-1.17473E+006,391.429
331.9000,-871845,391.145
331.8000,-607796,390.861
331.7000,-283905,390.542
331.6000,-170055,390.242
331.5000,-472799,389.821
331.4000,-558933,389.497
331.3000,-453929,389.219
331.2000,-390614,388.909
331.1000,-559774,388.627
331.0000,-771773,388.334
330.9000,-697241,388.028
330.8000,-1.06183E+006,387.758
330.7000,-969279,387.451
330.6000,-434060,387.187
330.5000,-241870,386.921
330.4000,-536058,386.628
330.3000,-721943,386.375
330.2000,-702268,386.013
330.1000,-906260,385.717
330.0000,-855652,385.452
329.9000,-793576,385.162
329.8000,-1.18996E+006,384.904
329.7000,-1.36422E+006,384.56
329.6000,-906044,384.292
329.5000,-699356,384.051
329.4000,-732454,383.753
329.3000,-800921,383.488
329.2000,-724705,383.126
329.1000,-782277,382.84
329.0000,-502181,382.598
328.9000,-672080,382.318
328.8000,-1.43958E+006,382.06
328.7000,-1.36001E+006,381.716
328.6000,-1.45254E+006,381.462
328.5000,-1.44019E+006,381.253
328.4000,-1.57857E+006,380.996
328.3000,-1.52938E+006,380.77
328.2000,-1.5683E+006,380.471
328.1000,-1.7111E+006,380.236
328.0000,-1.33558E+006,380.033
327.9000,-1.26008E+006,379.764
327.8000,-1.29363E+006,379.518
327.7000,-1.2851E+006,379.267
327.6000,-1.50583E+006,379.101
327.5000,-1.41219E+006,378.981
327.4000,-1.45446E+006,378.717
327.3000,-1.13838E+006,378.47
327.2000,-1.13327E+006,378.18
327.1000,-995711,377.984
327.0000,-1.21427E+006,377.832
326.9000,-1.44939E+006,377.553
326.8000,-1.02948E+006,377.262
326.7000,-926527,376.938
326.6000,-813547,376.748
326.5000,-936558,376.622
326.4000,-1.50648E+006,376.352
326.3000,-2.30073E+006,376.078
326.2000,-2.52367E+006,375.797
326.1000,-2.54121E+006,375.613
326.0000,-2.68952E+006,375.316
325.9000,-3.02472E+006,375.034
325.8000,-3.16609E+006,374.76
325.7000,-3.25088E+006,374.502
325.6000,-3.01352E+006,374.367
325.5000,-2.41757E+006,374.092
325.4000,-2.20791E+006,373.813
325.3000,-2.30671E+006,373.525
325.2000,-2.2664E+006,373.362
325.1000,-2.28804E+006,373.253
325.0000,-2.36335E+006,372.966
324.9000,-2.2463E+006,372.663
324.8000,-2.24375E+006,372.358
324.7000,-2.38941E+006,372.204
324.6000,-2.21259E+006,372.13
324.5000,-1.90565E+006,371.868
324.4000,-1.57093E+006,371.597
324.3000,-1.52402E+006,371.34
324.2000,-1.44604E+006,371.21
324.1000,-1.84271E+006,370.957
324.0000,-2.01263E+006,370.695
323.9000,-1.88224E+006,370.424
323.8000,-1.59931E+006,370.169
323.7000,-1.51676E+006,370.044
323.6000,-1.84102E+006,369.771
323.5000,-2.1603E+006,369.472
323.4000,-2.31954E+006,369.187
323.3000,-2.38243E+006,369.037
323.2000,-2.49412E+006,368.949
323.1000,-2.72635E+006,368.686
323.0000,-3.31153E+006,368.401
322.9000,-3.87872E+006,368.118
322.8000,-3.80149E+006,367.986
322.7000,-3.13206E+006,367.75
322.6000,-2.48288E+006,367.48
322.5000,-2.3442E+006,367.201
322.4000,-2.05281E+006,366.924
322.3000,-1.83439E+006,366.754
322.2000,-1.26983E+006,366.453
322.1000,-530857,366.128
322.0000,-61778.7,365.815
321.9000,-216841,365.628
321.8000,-403950,365.341
321.7000,-617437,365.037
321.6000,-753171,364.726
321.5000,-775810,364.446
321.4000,-1.22508E+006,364.317
321.3000,-1.73109E+006,364.133
321.2000,-2.24603E+006,363.941
321.1000,-2.64642E+006,363.751
321.0000,-2.82087E+006,363.694
320.9000,-2.49214E+006,363.556
320.8000,-2.18264E+006,363.416
320.7000,-1.89305E+006,363.283
320.6000,-1.70883E+006,363.137
320.5000,-1.89415E+006,363.081
320.4000,-1.86578E+006,362.901
320.3000,-1.20668E+006,362.71
320.2000,-709269,362.534
320.1000,-808951,362.466
320.0000,-899241,362.298
319.9000,-943057,362.11
319.8000,-1.06142E+006,361.915
319.7000,-593911,361.72
319.6000,-423295,361.512
319.5000,-649881,361.356
319.4000,-1.20305E+006,361.176
319.3000,-1.44329E+006,360.965
319.2000,-1.55553E+006,360.858
319.1000,-1.69688E+006,360.651
319.0000,-2.08661E+006,360.426
318.9000,-2.597E+006,360.21
318.8000,-2.99581E+006,360.091
318.7000,-3.35016E+006,359.866
318.6000,-3.3682E+006,359.635
318.5000,-3.35394E+006,359.434
318.4000,-3.31511E+006,359.235
318.3000,-3.18421E+006,359.036
318.2000,-2.95625E+006,358.895
318.1000,-2.66887E+006,358.747
318.0000,-2.42039E+006,358.569
317.9000,-1.99871E+006,358.497
317.8000,-2.02661E+006,358.364
317.7000,-2.07174E+006,358.212
317.6000,-2.29546E+006,358.023
317.5000,-2.49362E+006,357.912
317.4000,-2.92275E+006,357.726
317.3000,-3.07618E+006,357.533
317.2000,-2.73581E+006,357.339
317.1000,-2.5108E+006,357.147
317.0000,-2.4951E+006,356.897
316.9000,-2.63731E+006,356.687
316.8000,-2.39979E+006,356.509
316.7000,-2.33393E+006,356.334
316.6000,-2.07199E+006,356.158
316.5000,-1.87654E+006,356.015
316.4000,-1.84118E+006,355.846
316.3000,-1.75363E+006,355.668
316.2000,-1.50706E+006,355.501
316.1000,-955280,355.384
316.0000,-854872,355.257
315.9000,-760663,355.091
315.8000,-747712,354.984
315.7000,-759376,354.81
315.6000,-704541,354.661
315.5000,-1.14949E+006,354.491
315.4000,-1.34277E+006,354.385
315.3000,-1.49723E+006,354.191
315.2000,-1.65665E+006,353.986
315.1000,-1.97353E+006,353.794
315.0000,-2.07693E+006,353.608
314.9000,-1.95819E+006,353.422
314.8000,-1.92959E+006,353.268
314.7000,-1.99547E+006,353.103
314.6000,-2.23027E+006,352.94
314.5000,-2.48155E+006,352.787
314.4000,-2.61097E+006,352.677
314.3000,-2.32302E+006,352.542
314.2000,-2.13231E+006,352.406
314.1000,-2.0665E+006,352.226
314.0000,-2.05481E+006,352.066
313.9000,-2.02803E+006,351.905
313.8000,-1.87912E+006,351.752
313.7000,-1.72095E+006,351.533
313.6000,-1.54513E+006,351.334
313.5000,-1.63372E+006,351.146
313.4000,-1.98594E+006,350.962
313.3000,-2.37797E+006,350.786
313.2000,-2.62284E+006,350.642
313.1000,-2.6652E+006,350.49
313.0000,-2.75967E+006,350.34
312.9000,-2.67464E+006,350.203
312.8000,-2.59874E+006,350.107
312.7000,-2.55571E+006,349.976
312.6000,-2.21591E+006,349.849
312.5000,-1.82119E+006,349.693
312.4000,-1.68792E+006,349.544
312.3000,-1.39331E+006,349.371
312.2000,-930350,349.2
312.1000,-1.10568E+006,348.978
312.0000,-1.53455E+006,348.769
311.9000,-1.803E+006,348.566
311.8000,-2.20729E+006,348.329
311.7000,-2.53214E+006,348.141
311.6000,-2.77936E+006,347.946
311.5000,-3.00345E+006,347.793
311.4000,-3.44446E+006,347.6
311.3000,-3.94286E+006,347.475
311.2000,-3.87978E+006,347.361
311.1000,-3.82243E+006,347.272
311.0000,-3.72749E+006,347.173
310.9000,-3.66886E+006,347.09
310.8000,-3.77504E+006,346.991
310.7000,-3.77349E+006,346.903
310.6000,-3.81569E+006,346.778
310.5000,-3.50119E+006,346.673
310.4000,-3.05436E+006,346.562
310.3000,-2.62403E+006,346.46
310.2000,-2.27705E+006,346.366
310.1000,-2.23436E+006,346.288
310.0000,-2.02932E+006,346.206
309.9000,-1.89205E+006,346.137
309.8000,-1.80905E+006,346.072
309.7000,-1.82049E+006,345.983
309.6000,-2.09431E+006,345.913
309.5000,-2.25682E+006,345.805
309.4000,-2.46438E+006,345.712
309.3000,-2.25048E+006,345.578
309.2000,-2.19567E+006,345.465
309.1000,-2.30153E+006,345.293
309.0000,-2.27928E+006,345.149
308.9000,-2.32859E+006,345.013
308.8000,-2.2352E+006,344.892
308.7000,-2.21885E+006,344.785
308.6000,-2.25836E+006,344.697
308.5000,-2.43877E+006,344.592
308.4000,-2.94493E+006,344.475
308.3000,-3.12614E+006,344.406
308.2000,-3.20998E+006,344.303
308.1000,-3.27241E+006,344.229
308.0000,-3.22184E+006,344.132
307.9000,-3.08618E+006,344.047
307.8000,-3.1736E+006,343.907
307.7000,-3.34377E+006,343.798
307.6000,-2.96134E+006,343.681
307.5000,-2.71416E+006,343.519
307.4000,-2.58376E+006,343.396
307.3000,-2.38738E+006,343.28
307.2000,-2.36881E+006,343.19
307.1000,-2.60319E+006,343.061
307.0000,-2.76944E+006,342.97
306.9000,-2.6715E+006,342.877
306.8000,-2.64745E+006,342.816
306.7000,-2.87082E+006,342.745
306.6000,-2.82699E+006,342.658
306.5000,-2.87487E+006,342.578
306.4000,-2.75268E+006,342.446
306.3000,-2.53928E+006,342.346
306.2000,-2.32599E+006,342.219
306.1000,-2.39307E+006,342.106
306.0000,-2.64913E+006,341.955
305.9000,-2.5626E+006,341.849
305.8000,-2.59619E+006,341.774
305.7000,-2.79581E+006,341.655
305.6000,-2.90698E+006,341.575
305.5000,-2.95905E+006,341.502
305.4000,-3.07093E+006,341.457
305.3000,-2.82719E+006,341.367
305.2000,-2.52552E+006,341.304
305.1000,-2.43648E+006,341.229
305.0000,-2.36542E+006,341.103
304.9000,-2.29579E+006,341.018
304.8000,-2.3338E+006,340.916
304.7000,-2.26333E+006,340.823
304.6000,-2.11255E+006,340.69
304.5000,-2.14362E+006,340.587
304.4000,-2.25514E+006,340.505
304.3000,-2.35998E+006,340.391
304.2000,-2.33411E+006,340.329
304.1000,-2.46716E+006,340.274
304.0000,-2.48956E+006,340.242
303.9000,-2.64363E+006,340.158
303.8000,-2.75357E+006,340.081
303.7000,-2.75815E+006,340.033
303.6000,-2.53306E+006,339.932
303.5000,-2.39439E+006,339.862
303.4000,-2.31105E+006,339.776
303.3000,-2.24408E+006,339.658
303.2000,-2.06703E+006,339.545
303.1000,-1.61822E+006,339.464
303.0000,-1.30392E+006,339.421
302.9000,-1.27419E+006,339.329
302.8000,-1.52338E+006,339.256
302.7000,-1.97147E+006,339.2
302.6000,-1.89895E+006,339.118
302.5000,-1.85839E+006,339.073
302.4000,-1.81462E+006,339.022
302.3000,-1.98698E+006,338.925
302.2000,-2.3329E+006,338.827
302.1000,-2.34678E+006,338.734
302.0000,-2.22789E+006,338.673
301.9000,-2.00648E+006,338.585
301.8000,-1.90379E+006,338.51
301.7000,-1.84888E+006,338.45
301.6000,-1.74548E+006,338.361
301.5000,-1.85534E+006,338.311
301.4000,-2.11896E+006,338.259
301.3000,-2.1632E+006,338.184
301.2000,-2.49795E+006,338.114
301.1000,-2.61032E+006,338.052
301.0000,-2.72039E+006,338.019
300.9000,-2.78814E+006,337.945
300.8000,-2.84485E+006,337.868
300.7000,-2.79175E+006,337.804
300.6000,-2.55429E+006,337.723
300.5000,-2.47895E+006,337.657
300.4000,-2.31168E+006,337.607
300.3000,-1.87328E+006,337.535
300.2000,-1.73242E+006,337.461
300.1000,-1.70544E+006,337.403
300.0000,-1.82944E+006,337.339
299.9000,-1.94341E+006,337.286
299.8000,-2.23292E+006,337.232
299.7000,-2.31274E+006,337.165
299.6000,-2.41643E+006,337.105
299.5000,-2.75398E+006,337.039
299.4000,-2.92699E+006,336.986
299.3000,-2.95328E+006,336.914
299.2000,-2.97748E+006,336.856
299.1000,-2.79493E+006,336.815
299.0000,-2.76665E+006,336.748
298.9000,-2.96774E+006,336.695
298.8000,-3.22616E+006,336.655
298.7000,-3.25935E+006,336.598
298.6000,-3.10637E+006,336.553
298.5000,-3.24969E+006,336.502
298.4000,-3.39864E+006,336.439
298.3000,-3.56712E+006,336.383
298.2000,-3.43534E+006,336.327
298.1000,-3.34996E+006,336.268
298.0000,-3.29249E+006,336.216
297.9000,-3.24689E+006,336.169
297.8000,-3.26614E+006,336.103
297.7000,-3.05114E+006,336.053
297.6000,-3.0272E+006,336.012
297.5000,-2.97804E+006,335.948
297.4000,-3.10947E+006,335.901
297.3000,-3.06033E+006,335.859
297.2000,-3.03128E+006,335.795
297.1000,-2.98672E+006,335.746
297.0000,-3.21031E+006,335.692
296.9000,-3.5125E+006,335.618
296.8000,-3.55929E+006,335.564
296.7000,-3.44976E+006,335.52
296.6000,-3.32052E+006,335.484
296.5000,-3.31483E+006,335.436
296.4000,-3.14347E+006,335.398
296.3000,-2.91583E+006,335.369
296.2000,-2.69873E+006,335.331
296.1000,-2.15014E+006,335.301
296.0000,-1.891E+006,335.274
295.9000,-1.8885E+006,335.227
295.8000,-1.87874E+006,335.162
295.7000,-1.79014E+006,335.12
295.6000,-1.74476E+006,335.074
295.5000,-1.96582E+006,335.006
295.4000,-2.24029E+006,334.927
295.3000,-2.5381E+006,334.876
295.2000,-2.75278E+006,334.816
295.1000,-2.85886E+006,334.742
295.0000,-2.84028E+006,334.703
294.9000,-2.97726E+006,334.649
294.8000,-3.20425E+006,334.579
294.7000,-3.13238E+006,334.539
294.6000,-2.99145E+006,334.506
294.5000,-2.99068E+006,334.456
294.4000,-3.00696E+006,334.419
294.3000,-3.02679E+006,334.394
294.2000,-3.10264E+006,334.347
294.1000,-3.10144E+006,334.31
294.0000,-2.97331E+006,334.288
293.9000,-3.09628E+006,334.242
293.8000,-2.86859E+006,334.215
293.7000,-2.72407E+006,334.193
293.6000,-2.78189E+006,334.141
293.5000,-2.97286E+006,334.077
293.4000,-2.81989E+006,334.048
293.3000,-2.79966E+006,334.004
293.2000,-2.77612E+006,333.948
293.1000,-2.60691E+006,333.924
293.0000,-2.8014E+006,333.874
292.9000,-3.17523E+006,333.818
292.8000,-3.18921E+006,333.798
292.7000,-3.18461E+006,333.775
292.6000,-3.59453E+006,333.735
292.5000,-4.05126E+006,333.676
292.4000,-4.28937E+006,333.646
292.3000,-4.34269E+006,333.6
292.2000,-4.33399E+006,333.552
292.1000,-4.22943E+006,333.528
292.0000,-4.10579E+006,333.487
291.9000,-3.92272E+006,333.437
291.8000,-3.67913E+006,333.392
291.7000,-3.21452E+006,333.377
291.6000,-3.0479E+006,333.335
291.5000,-2.95134E+006,333.288
291.4000,-2.88444E+006,333.263
291.3000,-2.88714E+006,333.21
291.2000,-2.95126E+006,333.143
291.1000,-3.15071E+006,333.07
291.0000,-3.23397E+006,333.016
290.9000,-3.49459E+006,332.936
290.8000,-3.5911E+006,332.84
290.7000,-3.57595E+006,332.737
290.6000,-3.6376E+006,332.624
290.5000,-3.65711E+006,332.489
290.4000,-3.57575E+006,332.352
290.3000,-3.51181E+006,332.236
290.2000,-3.56463E+006,332.097
290.1000,-3.29301E+006,331.952
290.0000,-2.97118E+006,331.823
289.9000,-2.79381E+006,331.732
289.8000,-2.81283E+006,331.651
289.7000,-2.61371E+006,331.597
289.6000,-2.47026E+006,331.583
289.5000,-2.59903E+006,331.606
289.4000,-2.53223E+006,331.651
289.3000,-2.48379E+006,331.727
289.2000,-2.88674E+006,331.818
289.1000,-3.30386E+006,331.929
289.0000,-3.50876E+006,332.032
288.9000,-3.72141E+006,332.131
288.8000,-3.7468E+006,332.221
288.7000,-3.61197E+006,332.298
288.6000,-3.34294E+006,332.355
288.5000,-3.3549E+006,332.393
288.4000,-3.15488E+006,332.415
288.3000,-2.80127E+006,332.431
288.2000,-2.6267E+006,332.424
288.1000,-2.34757E+006,332.413
288.0000,-2.34207E+006,332.386
287.9000,-2.31446E+006,332.346
287.8000,-2.43981E+006,332.319
287.7000,-2.61903E+006,332.288
287.6000,-2.96697E+006,332.259
287.5000,-3.19682E+006,332.222
287.4000,-3.28678E+006,332.202
287.3000,-3.53267E+006,332.182
287.2000,-3.75555E+006,332.163
287.1000,-3.86626E+006,332.148
287.0000,-4.06005E+006,332.106
286.9000,-4.23236E+006,332.082
286.8000,-3.83236E+006,332.07
286.7000,-3.46239E+006,332.056
286.6000,-3.24188E+006,332.031
286.5000,-3.22245E+006,332.022
286.4000,-3.03599E+006,332.02
286.3000,-2.88417E+006,332.02
286.2000,-2.91125E+006,332.017
286.1000,-2.88907E+006,332.008
286.0000,-3.1133E+006,332.01
285.9000,-3.45739E+006,331.997
285.8000,-3.53023E+006,331.992
285.7000,-3.41866E+006,331.965
285.6000,-3.42939E+006,331.936
285.5000,-3.47767E+006,331.929
285.4000,-3.369E+006,331.929
285.3000,-2.94422E+006,331.938
285.2000,-2.76904E+006,331.916
285.1000,-2.75219E+006,331.905
285.0000,-2.78915E+006,331.917
284.9000,-2.83865E+006,331.915
284.8000,-2.93368E+006,331.918
284.7000,-2.79994E+006,331.897
284.6000,-2.96253E+006,331.874
284.5000,-3.33278E+006,331.869
284.4000,-3.4691E+006,331.868
284.3000,-3.36209E+006,331.873
284.2000,-3.2805E+006,331.849
284.1000,-3.18887E+006,331.837
284.0000,-3.065E+006,331.819
283.9000,-3.15938E+006,331.822
283.8000,-3.33925E+006,331.833
283.7000,-3.04411E+006,331.827
283.6000,-2.70552E+006,331.824
283.5000,-2.73605E+006,331.813
283.4000,-2.76906E+006,331.811
283.3000,-2.7706E+006,331.83
283.2000,-2.96421E+006,331.848
283.1000,-2.99326E+006,331.859
283.0000,-2.87726E+006,331.85
282.9000,-2.82942E+006,331.842
282.8000,-3.03366E+006,331.83
282.7000,-3.09326E+006,331.839
282.6000,-3.06269E+006,331.851
282.5000,-3.06585E+006,331.851
282.4000,-2.84496E+006,331.844
282.3000,-2.72728E+006,331.835
282.2000,-2.56109E+006,331.833
282.1000,-2.61625E+006,331.85
282.0000,-2.60559E+006,331.868
281.9000,-2.43423E+006,331.875
281.8000,-2.53729E+006,331.869
281.7000,-2.5441E+006,331.861
281.6000,-2.66061E+006,331.858
281.5000,-2.70286E+006,331.856
281.4000,-2.7797E+006,331.88
281.3000,-2.76015E+006,331.889
281.2000,-2.72166E+006,331.887
281.1000,-2.79502E+006,331.887
281.0000,-2.70487E+006,331.89
280.9000,-2.55625E+006,331.893
280.8000,-2.63037E+006,331.892
280.7000,-2.72277E+006,331.897
280.6000,-2.83089E+006,331.906
280.5000,-2.94925E+006,331.905
280.4000,-3.12104E+006,331.909
280.3000,-3.39327E+006,331.907
280.2000,-3.35337E+006,331.901
280.1000,-3.57307E+006,331.892
280.0000,-3.52084E+006,331.889
279.9000,-3.37811E+006,331.888
279.8000,-3.15126E+006,331.867
279.7000,-2.84308E+006,331.862
279.6000,-2.38632E+006,331.856
279.5000,-2.06088E+006,331.85
279.4000,-2.14883E+006,331.848
279.3000,-2.00105E+006,331.847
279.2000,-1.85591E+006,331.848
279.1000,-1.92811E+006,331.845
279.0000,-1.98802E+006,331.846
278.9000,-2.14048E+006,331.837
278.8000,-2.29071E+006,331.843
278.7000,-2.50584E+006,331.852
278.6000,-2.49099E+006,331.865
278.5000,-2.48293E+006,331.877
278.4000,-2.51172E+006,331.885
278.3000,-2.49419E+006,331.896
278.2000,-2.28947E+006,331.908
278.1000,-2.26393E+006,331.918
278.0000,-2.28027E+006,331.916
277.9000,-2.10665E+006,331.914
277.8000,-1.85222E+006,331.909
277.7000,-1.67437E+006,331.904
277.6000,-1.55029E+006,331.922
277.5000,-1.44302E+006,331.937
277.4000,-1.40634E+006,331.95
277.3000,-1.47244E+006,331.965
277.2000,-1.48565E+006,331.981
277.1000,-1.49851E+006,331.996
277.0000,-1.81115E+006,332.01
276.9000,-2.29852E+006,332.023
276.8000,-2.61868E+006,332.029
276.7000,-2.73832E+006,332.028
276.6000,-3.14376E+006,332.027
276.5000,-3.26993E+006,332.03
276.4000,-3.15808E+006,332.033
276.3000,-3.13291E+006,332.038
276.2000,-3.18196E+006,332.037
276.1000,-2.97563E+006,332.044
276.0000,-2.78271E+006,332.068
275.9000,-2.96391E+006,332.087
275.8000,-2.82531E+006,332.107
275.7000,-2.71863E+006,332.13
275.6000,-2.85646E+006,332.153
275.5000,-2.9886E+006,332.168
275.4000,-3.03728E+006,332.189
275.3000,-2.91766E+006,332.207
275.2000,-2.45673E+006,332.217
275.1000,-2.01701E+006,332.22
275.0000,-1.99092E+006,332.225
274.9000,-2.09668E+006,332.234
274.8000,-2.19589E+006,332.235
274.7000,-2.2998E+006,332.243
274.6000,-2.0839E+006,332.254
274.5000,-1.91615E+006,332.272
274.4000,-2.1262E+006,332.288
274.3000,-2.08125E+006,332.307
274.2000,-1.98216E+006,332.318
274.1000,-1.67754E+006,332.331
274.0000,-1.37918E+006,332.341
273.9000,-880110,332.356
273.8000,-589665,332.369
273.7000,-743175,332.374
273.6000,-928510,332.379
273.5000,-1.15024E+006,332.386
273.4000,-1.34499E+006,332.4
273.3000,-1.43933E+006,332.418
273.2000,-1.5029E+006,332.436
273.1000,-1.70078E+006,332.455
273.0000,-2.28013E+006,332.467
272.9000,-2.41103E+006,332.48
272.8000,-2.50917E+006,332.495
272.7000,-2.71868E+006,332.51
272.6000,-2.97206E+006,332.525
272.5000,-2.97999E+006,332.544
272.4000,-2.91706E+006,332.559
272.3000,-2.85531E+006,332.569
272.2000,-2.61746E+006,332.582
272.1000,-2.43964E+006,332.601
272.0000,-2.40894E+006,332.619
271.9000,-2.05779E+006,332.642
271.8000,-1.72001E+006,332.656
271.7000,-1.7579E+006,332.665
271.6000,-1.98485E+006,332.682
271.5000,-2.28612E+006,332.706
271.4000,-2.52418E+006,332.732
271.3000,-2.7413E+006,332.753
271.2000,-2.82264E+006,332.769
271.1000,-2.95999E+006,332.781
271.0000,-3.25689E+006,332.796
270.9000,-3.07874E+006,332.803
270.8000,-2.98828E+006,332.801
270.7000,-3.19748E+006,332.794
270.6000,-3.25952E+006,332.785
270.5000,-3.41243E+006,332.776
270.4000,-3.20314E+006,332.772
270.3000,-3.19384E+006,332.761
270.2000,-3.02033E+006,332.754
270.1000,-3.10508E+006,332.751
270.0000,-3.24997E+006,332.757
269.9000,-2.87344E+006,332.77
269.8000,-2.65625E+006,332.782
269.7000,-2.37973E+006,332.797
269.6000,-2.40431E+006,332.812
269.5000,-2.38051E+006,332.83
269.4000,-2.3712E+006,332.84
269.3000,-2.21576E+006,332.854
269.2000,-1.89416E+006,332.869
269.1000,-1.79319E+006,332.889
269.0000,-1.64588E+006,332.911
268.9000,-1.49738E+006,332.94
268.8000,-1.20371E+006,332.967
268.7000,-883869,333.005
268.6000,-681876,333.048
268.5000,-629087,333.099
268.4000,-859580,333.147
268.3000,-1.00384E+006,333.183
268.2000,-1.04941E+006,333.221
268.1000,-1.19298E+006,333.253
268.0000,-1.45668E+006,333.293
267.9000,-1.72827E+006,333.327
267.8000,-1.93443E+006,333.369
267.7000,-2.05793E+006,333.403
267.6000,-2.14434E+006,333.441
267.5000,-2.01683E+006,333.48
267.4000,-1.94201E+006,333.505
267.3000,-1.88262E+006,333.543
267.2000,-1.80932E+006,333.572
267.1000,-1.88277E+006,333.61
267.0000,-1.87602E+006,333.649
266.9000,-1.99054E+006,333.695
266.8000,-1.75944E+006,333.738
266.7000,-1.9333E+006,333.772
266.6000,-1.96668E+006,333.821
266.5000,-2.02716E+006,333.874
266.4000,-1.84246E+006,333.936
266.3000,-1.72465E+006,333.993
266.2000,-1.93886E+006,334.043
266.1000,-2.00547E+006,334.084
266.0000,-2.20618E+006,334.119
265.9000,-2.14949E+006,334.179
265.8000,-2.13674E+006,334.242
265.7000,-2.23107E+006,334.3
265.6000,-2.16192E+006,334.353
265.5000,-2.30137E+006,334.406
265.4000,-2.35603E+006,334.45
265.3000,-2.26138E+006,334.495
265.2000,-2.05796E+006,334.551
265.1000,-2.08146E+006,334.598
265.0000,-2.04483E+006,334.653
264.9000,-2.16284E+006,334.723
264.8000,-2.31893E+006,334.779
264.7000,-2.54003E+006,334.831
264.6000,-2.33102E+006,334.889
264.5000,-2.27159E+006,334.96
264.4000,-2.22238E+006,335.039
264.3000,-2.19407E+006,335.108
264.2000,-2.09979E+006,335.172
264.1000,-2.05998E+006,335.227
264.0000,-1.93917E+006,335.294
263.9000,-1.81452E+006,335.358
263.8000,-1.7058E+006,335.416
263.7000,-1.46868E+006,335.478
263.6000,-1.16219E+006,335.54
263.5000,-957939,335.604
263.4000,-566781,335.676
263.3000,-419418,335.73
263.2000,-484243,335.788
263.1000,-590801,335.855
263.0000,-592284,335.932
262.9000,-522194,336
262.8000,-877437,336.061
262.7000,-987311,336.136
262.6000,-1.21696E+006,336.213
262.5000,-1.37557E+006,336.304
262.4000,-1.3721E+006,336.391
262.3000,-1.20897E+006,336.472
262.2000,-968121,336.554
262.1000,-1.13002E+006,336.642
262.0000,-1.18744E+006,336.715
261.9000,-1.18415E+006,336.787
261.8000,-1.24932E+006,336.856
261.7000,-1.23781E+006,336.913
261.6000,-1.26706E+006,336.97
261.5000,-1.21565E+006,337.033
261.4000,-1.27178E+006,337.1
261.3000,-1.3137E+006,337.16
261.2000,-1.31638E+006,337.239
261.1000,-1.16875E+006,337.324
261.0000,-955985,337.417
260.9000,-925519,337.505
260.8000,-951884,337.609
260.7000,-1.08359E+006,337.707
260.6000,-1.01737E+006,337.792
260.5000,-1.07849E+006,337.883
260.4000,-1.10569E+006,337.98
260.3000,-1.11641E+006,338.072
260.2000,-1.27832E+006,338.149
260.1000,-1.06877E+006,338.239
260.0000,-1.26651E+006,338.328
259.9000,-1.29653E+006,338.407
259.8000,-1.32555E+006,338.502
259.7000,-1.20534E+006,338.602
259.6000,-1.0746E+006,338.683
259.5000,-1.11429E+006,338.762
259.4000,-1.10705E+006,338.853
259.3000,-1.24998E+006,338.924
259.2000,-1.10008E+006,338.994
259.1000,-658748,339.069
259.0000,-520446,339.134
258.9000,-594580,339.199
258.8000,-720869,339.273
258.7000,-734677,339.349
258.6000,-771598,339.424
258.5000,-763723,339.506
258.4000,-705060,339.592
258.3000,-918114,339.679
258.2000,-702082,339.783
258.1000,-560280,339.875
258.0000,-130030,339.97
257.9000,123960,340.065
257.8000,380719,340.155
257.7000,375058,340.251
257.6000,252521,340.357
257.5000,55175.1,340.453
257.4000,-274775,340.548
257.3000,-735756,340.636
257.2000,-1.33594E+006,340.724
257.1000,-1.80642E+006,340.82
257.0000,-2.10251E+006,340.919
256.9000,-2.37104E+006,341.013
256.8000,-2.64492E+006,341.088
256.7000,-2.67122E+006,341.178
256.6000,-2.63967E+006,341.273
256.5000,-2.45185E+006,341.359
256.4000,-2.20331E+006,341.454
256.3000,-1.95605E+006,341.543
256.2000,-1.87776E+006,341.63
256.1000,-1.60457E+006,341.721
256.0000,-1.17368E+006,341.805
255.9000,-736454,341.89
255.8000,-542426,341.949
255.7000,-211045,342.028
255.6000,43871.8,342.105
255.5000,62044,342.173
255.4000,-118276,342.243
255.3000,-99505.1,342.311
255.2000,-107653,342.397
255.1000,-80804.6,342.482
255.0000,-42046.3,342.578
254.9000,-138526,342.661
254.8000,-424196,342.746
254.7000,-560168,342.844
254.6000,-402052,342.937
254.5000,-704529,343.028
254.4000,-1.15973E+006,343.103
254.3000,-1.39138E+006,343.18
254.2000,-1.82144E+006,343.249
254.1000,-2.09197E+006,343.338
254.0000,-2.21484E+006,343.432
253.9000,-2.01205E+006,343.53
253.8000,-1.95565E+006,343.618
253.7000,-1.56108E+006,343.71
253.6000,-1.43616E+006,343.8
253.5000,-1.38276E+006,343.896
253.4000,-1.44893E+006,343.99
253.3000,-1.33302E+006,344.094
253.2000,-1.37844E+006,344.186
253.1000,-1.50394E+006,344.278
253.0000,-1.54093E+006,344.363
252.9000,-1.7501E+006,344.445
252.8000,-1.82532E+006,344.526
252.7000,-2.02054E+006,344.611
252.6000,-1.8982E+006,344.699
252.5000,-1.74072E+006,344.788
252.4000,-1.55042E+006,344.866
252.3000,-1.35842E+006,344.946
252.2000,-1.26314E+006,345.017
252.1000,-1.08797E+006,345.099
252.0000,-898521,345.184
251.9000,-699165,345.261
251.8000,-398495,345.347
251.7000,-315395,345.416
251.6000,-457682,345.49
251.5000,-715015,345.556
251.4000,-983554,345.638
251.3000,-1.43857E+006,345.725
251.2000,-1.47842E+006,345.815
251.1000,-1.30877E+006,345.92
251.0000,-1.38805E+006,346.024
250.9000,-1.20295E+006,346.137
250.8000,-1.0886E+006,346.234
250.7000,-1.22056E+006,346.341
250.6000,-1.24837E+006,346.443
250.5000,-1.05375E+006,346.537
250.4000,-1.08152E+006,346.63
250.3000,-1.12411E+006,346.713
250.2000,-1.10339E+006,346.796
250.1000,-1.46461E+006,346.866
250.0000,-1.27752E+006,346.946
249.9000,-852393,347.037
249.8000,-606364,347.126
249.7000,-355392,347.232
249.6000,-97321.2,347.338
249.5000,65466.6,347.449
249.4000,-76861.1,347.567
249.3000,-69426.7,347.681
249.2000,-331493,347.787
249.1000,-674019,347.889
249.0000,-854144,347.978
248.9000,-1.09469E+006,348.058
248.8000,-996320,348.153
248.7000,-1.12378E+006,348.246
248.6000,-824161,348.329
248.5000,-737841,348.411
248.4000,-718561,348.492
248.3000,-545137,348.574
248.2000,-539040,348.672
248.1000,-658193,348.777
248.0000,-709085,348.865
247.9000,-722712,348.95
247.8000,-816558,349.031
247.7000,-1.09414E+006,349.105
247.6000,-1.04125E+006,349.193
247.5000,-1.01875E+006,349.287
247.4000,-893315,349.377
247.3000,-569688,349.448
247.2000,-705807,349.519
247.1000,-925099,349.591
247.0000,-836775,349.665
246.9000,-847266,349.755
246.8000,-859785,349.844
246.7000,-948342,349.927
246.6000,-1.15371E+006,350.01
246.5000,-1.35725E+006,350.1
246.4000,-1.52225E+006,350.185
246.3000,-1.65402E+006,350.272
246.2000,-1.90284E+006,350.359
246.1000,-2.32366E+006,350.441
246.0000,-2.30971E+006,350.527
245.9000,-2.29672E+006,350.616
245.8000,-2.16985E+006,350.705
245.7000,-1.88549E+006,350.808
245.6000,-1.49627E+006,350.923
245.5000,-1.0361E+006,351.034
245.4000,-631007,351.137
245.3000,-162625,351.242
245.2000,390927,351.358
245.1000,695381,351.468
245.0000,391645,351.566
244.9000,186636,351.657
244.8000,-27329.1,351.751
244.7000,-75044.8,351.862
244.6000,-426814,351.972
244.5000,-626454,352.081
244.4000,-1.11754E+006,352.174
244.3000,-1.31749E+006,352.267
244.2000,-1.37339E+006,352.366
244.1000,-1.36552E+006,352.476
244.0000,-1.3312E+006,352.581
243.9000,-1.30704E+006,352.676
243.8000,-1.0524E+006,352.771
243.7000,-910173,352.869
243.6000,-692409,352.972
243.5000,-885588,353.074
243.4000,-661983,353.193
243.3000,-225272,353.305
243.2000,-182893,353.409
243.1000,-216277,353.511
243.0000,-452244,353.61
242.9000,-693374,353.712
242.8000,-677217,353.817
242.7000,-735030,353.928
242.6000,-886106,354.034
242.5000,-1.45088E+006,354.137
242.4000,-1.7878E+006,354.25
242.3000,-1.68495E+006,354.369
242.2000,-1.666E+006,354.491
242.1000,-1.36371E+006,354.615
242.0000,-1.41219E+006,354.734
241.9000,-1.22422E+006,354.855
241.8000,-1.06264E+006,354.972
241.7000,-1.09636E+006,355.085
241.6000,-996631,355.195
241.5000,-1.07006E+006,355.308
241.4000,-1.39162E+006,355.422
241.3000,-1.73862E+006,355.539
241.2000,-1.86964E+006,355.662
241.1000,-1.94883E+006,355.79
241.0000,-2.03429E+006,355.913
240.9000,-1.98685E+006,356.038
240.8000,-1.77547E+006,356.166
240.7000,-1.55056E+006,356.294
240.6000,-1.28464E+006,356.425
240.5000,-1.46468E+006,356.553
240.4000,-1.48288E+006,356.683
240.3000,-1.78701E+006,356.807
240.2000,-2.04656E+006,356.929
240.1000,-2.02999E+006,357.058
240.0000,-2.04157E+006,357.184
239.9000,-2.44137E+006,357.314
239.8000,-2.83298E+006,357.443
239.7000,-2.69842E+006,357.577
239.6000,-2.68981E+006,357.712
239.5000,-2.86284E+006,357.854
239.4000,-2.74244E+006,358.009
239.3000,-2.85446E+006,358.17
239.2000,-3.07452E+006,358.338
239.1000,-3.2332E+006,358.509
239.0000,-3.18158E+006,358.676
238.9000,-3.09389E+006,358.841
238.8000,-3.07722E+006,359.005
238.7000,-2.4533E+006,359.172
238.6000,-2.10703E+006,359.321
238.5000,-1.97593E+006,359.464
238.4000,-1.78412E+006,359.604
238.3000,-1.48222E+006,359.748
238.2000,-1.24951E+006,359.892
238.1000,-1.10673E+006,360.037
238.0000,-931646,360.188
237.9000,-1.25557E+006,360.334
237.8000,-1.65292E+006,360.486
237.7000,-1.75394E+006,360.649
237.6000,-1.86157E+006,360.818
237.5000,-2.19274E+006,360.991
237.4000,-2.37006E+006,361.171
237.3000,-2.26358E+006,361.355
237.2000,-2.20021E+006,361.537
237.1000,-1.902E+006,361.713
237.0000,-1.60739E+006,361.888
236.9000,-1.72421E+006,362.057
236.8000,-1.84275E+006,362.225
236.7000,-1.72018E+006,362.393
236.6000,-1.45454E+006,362.55
236.5000,-1.52408E+006,362.706
236.4000,-1.88363E+006,362.866
236.3000,-2.11836E+006,363.039
236.2000,-2.42483E+006,363.216
236.1000,-2.53981E+006,363.386
236.0000,-2.42551E+006,363.557
235.9000,-2.47408E+006,363.724
235.8000,-2.45267E+006,363.892
235.7000,-2.4517E+006,364.055
235.6000,-2.47667E+006,364.22
235.5000,-2.76609E+006,364.381
235.4000,-2.69498E+006,364.552
235.3000,-2.74231E+006,364.722
235.2000,-2.86583E+006,364.893
235.1000,-2.98323E+006,365.066
235.0000,-3.21251E+006,365.24
234.9000,-3.44273E+006,365.416
234.8000,-3.09131E+006,365.601
234.7000,-2.81594E+006,365.791
234.6000,-2.84856E+006,365.968
234.5000,-2.83177E+006,366.149
234.4000,-2.63276E+006,366.336
234.3000,-2.29315E+006,366.524
234.2000,-1.81159E+006,366.715
234.1000,-1.33486E+006,366.909
234.0000,-1.37503E+006,367.097
233.9000,-1.65224E+006,367.278
233.8000,-1.83635E+006,367.459
233.7000,-1.83512E+006,367.643
233.6000,-1.98655E+006,367.836
233.5000,-2.3717E+006,368.032
233.4000,-2.95696E+006,368.218
233.3000,-3.87373E+006,368.401
233.2000,-4.16683E+006,368.595
233.1000,-4.02195E+006,368.79
233.0000,-3.7234E+006,368.993
232.9000,-3.46384E+006,369.193
232.8000,-3.46361E+006,369.392
232.7000,-3.33568E+006,369.595
232.6000,-3.2834E+006,369.802
232.5000,-2.96388E+006,370.014
232.4000,-2.72126E+006,370.22
232.3000,-2.96036E+006,370.428
232.2000,-3.1786E+006,370.632
232.1000,-3.62058E+006,370.84
232.0000,-3.94667E+006,371.041
231.9000,-4.41571E+006,371.238
231.8000,-4.75404E+006,371.431
231.7000,-5.12731E+006,371.627
231.6000,-5.43437E+006,371.828
231.5000,-5.5087E+006,372.022
231.4000,-5.49608E+006,372.224
231.3000,-5.9018E+006,372.418
231.2000,-5.7625E+006,372.625
231.1000,-5.29021E+006,372.832
231.0000,-5.02446E+006,373.035
230.9000,-5.09428E+006,373.241
230.8000,-4.70641E+006,373.447
230.7000,-4.37083E+006,373.662
230.6000,-4.46003E+006,373.872
230.5000,-3.93405E+006,374.095
230.4000,-3.71497E+006,374.313
230.3000,-3.92234E+006,374.53
230.2000,-3.87915E+006,374.75
230.1000,-3.62058E+006,374.974
230.0000,-3.37554E+006,375.199
229.9000,-3.90367E+006,375.408
229.8000,-4.46812E+006,375.616
229.7000,-5.08171E+006,375.808
229.6000,-5.2986E+006,375.999
229.5000,-5.8053E+006,376.183
229.4000,-6.60529E+006,376.36
229.3000,-7.13461E+006,376.54
229.2000,-7.78493E+006,376.712
229.1000,-8.09397E+006,376.883
229.0000,-7.91032E+006,377.066
228.9000,-7.83664E+006,377.252
228.8000,-7.65118E+006,377.445
228.7000,-7.57843E+006,377.649
228.6000,-7.10811E+006,377.865
228.5000,-7.04999E+006,378.08
228.4000,-6.6363E+006,378.316
228.3000,-6.29536E+006,378.561
228.2000,-6.20357E+006,378.801
228.1000,-5.92819E+006,379.053
228.0000,-6.04007E+006,379.302
227.9000,-6.63002E+006,379.539
227.8000,-7.08185E+006,379.771
227.7000,-7.04701E+006,380.017
227.6000,-6.897E+006,380.257
227.5000,-6.80593E+006,380.489
227.4000,-6.69965E+006,380.725
227.3000,-6.86271E+006,380.96
227.2000,-6.84078E+006,381.191
227.1000,-6.16429E+006,381.426
227.0000,-5.89627E+006,381.659
226.9000,-5.65437E+006,381.886
226.8000,-5.7038E+006,382.111
226.7000,-6.23061E+006,382.332
226.6000,-6.3782E+006,382.552
226.5000,-6.08133E+006,382.769
226.4000,-5.94603E+006,382.981
226.3000,-6.10868E+006,383.191
226.2000,-5.92168E+006,383.415
226.1000,-6.04384E+006,383.632
226.0000,-5.93316E+006,383.848
225.9000,-5.27508E+006,384.065
225.8000,-4.80103E+006,384.283
225.7000,-5.11998E+006,384.497
225.6000,-5.24618E+006,384.717
225.5000,-5.17887E+006,384.941
225.4000,-5.00458E+006,385.161
225.3000,-4.918E+006,385.387
225.2000,-4.85958E+006,385.61
225.1000,-4.95216E+006,385.833
225.0000,-5.13505E+006,386.058
224.9000,-4.82668E+006,386.288
224.8000,-5.06127E+006,386.512
224.7000,-5.17318E+006,386.734
224.6000,-5.50633E+006,386.955
224.5000,-5.52581E+006,387.173
224.4000,-5.32179E+006,387.391
224.3000,-4.9998E+006,387.615
224.2000,-5.10306E+006,387.833
224.1000,-5.31632E+006,388.055
224.0000,-5.09053E+006,388.279
223.9000,-5.19818E+006,388.501
223.8000,-4.95207E+006,388.727
223.7000,-4.7111E+006,388.958
223.6000,-4.84505E+006,389.187
223.5000,-5.01926E+006,389.414
223.4000,-5.22295E+006,389.637
223.3000,-5.65303E+006,389.849
223.2000,-6.03405E+006,390.064
223.1000,-5.76107E+006,390.288
223.0000,-5.92977E+006,390.508
222.9000,-5.98951E+006,390.729
222.8000,-6.05818E+006,390.948
222.7000,-6.06378E+006,391.171
222.6000,-5.86382E+006,391.395
222.5000,-5.75121E+006,391.626
222.4000,-5.33865E+006,391.851
222.3000,-5.35632E+006,392.072
222.2000,-5.48216E+006,392.291
222.1000,-5.43084E+006,392.513
222.0000,-5.49829E+006,392.733
221.9000,-5.71847E+006,392.944
221.8000,-6.14119E+006,393.155
221.7000,-6.40945E+006,393.366
221.6000,-6.55484E+006,393.583
221.5000,-6.59657E+006,393.807
221.4000,-6.81882E+006,394.023
221.3000,-6.48644E+006,394.244
221.2000,-6.17821E+006,394.467
221.1000,-6.041E+006,394.692
221.0000,-6.23782E+006,394.912
220.9000,-6.08419E+006,395.133
220.8000,-5.88983E+006,395.359
220.7000,-6.12968E+006,395.572
220.6000,-6.14663E+006,395.792
220.5000,-6.1473E+006,396.018
220.4000,-6.34612E+006,396.231
220.3000,-6.43929E+006,396.451
220.2000,-6.17856E+006,396.679
220.1000,-5.99313E+006,396.907
220.0000,-6.07256E+006,397.131
219.9000,-6.3249E+006,397.359
219.8000,-6.05377E+006,397.591
219.7000,-6.00262E+006,397.82
219.6000,-6.33654E+006,398.041
219.5000,-6.65724E+006,398.266
219.4000,-7.2197E+006,398.489
219.3000,-7.76359E+006,398.706
219.2000,-8.62454E+006,398.923
219.1000,-8.4239E+006,399.147
219.0000,-8.31435E+006,399.372
218.9000,-8.81011E+006,399.589
218.8000,-8.54477E+006,399.817
218.7000,-8.16113E+006,400.044
218.6000,-7.74425E+006,400.27
218.5000,-7.30487E+006,400.495
218.4000,-6.29529E+006,400.729
218.3000,-5.82473E+006,400.953
218.2000,-5.72627E+006,401.175
218.1000,-5.74014E+006,401.396
218.0000,-5.66205E+006,401.625
217.9000,-6.1531E+006,401.847
217.8000,-6.97151E+006,402.061
217.7000,-6.82567E+006,402.288
217.6000,-7.24088E+006,402.505
217.5000,-7.62944E+006,402.733
217.4000,-7.77602E+006,402.959
217.3000,-7.43557E+006,403.189
217.2000,-7.33841E+006,403.417
217.1000,-7.24929E+006,403.642
217.0000,-6.47721E+006,403.872
216.9000,-6.36589E+006,404.1
216.8000,-5.87375E+006,404.334
216.7000,-5.27995E+006,404.56
216.6000,-4.95799E+006,404.789
216.5000,-5.21247E+006,405.011
216.4000,-5.39696E+006,405.227
216.3000,-5.20738E+006,405.445
216.2000,-5.15875E+006,405.672
216.1000,-4.70285E+006,405.903
216.0000,-4.64132E+006,406.126
215.9000,-5.20583E+006,406.344
215.8000,-6.02323E+006,406.558
215.7000,-6.18052E+006,406.784
215.6000,-6.09075E+006,407.019
215.5000,-6.03841E+006,407.253
215.4000,-6.49621E+006,407.481
215.3000,-7.15999E+006,407.703
215.2000,-7.5464E+006,407.93
215.1000,-7.35542E+006,408.174
215.0000,-6.74901E+006,408.421
214.9000,-6.38231E+006,408.668
214.8000,-6.40055E+006,408.906
214.7000,-6.6236E+006,409.146
214.6000,-6.22241E+006,409.394
214.5000,-5.58308E+006,409.645
214.4000,-5.39823E+006,409.893
214.3000,-5.90652E+006,410.132
214.2000,-6.23261E+006,410.372
214.1000,-6.13812E+006,410.615
214.0000,-6.10897E+006,410.86
213.9000,-5.91413E+006,411.107
213.8000,-5.4774E+006,411.355
213.7000,-5.33385E+006,411.603
213.6000,-5.16555E+006,411.854
213.5000,-4.87072E+006,412.109
213.4000,-4.22369E+006,412.367
213.3000,-4.15257E+006,412.625
213.2000,-4.66414E+006,412.88
213.1000,-4.42974E+006,413.146
213.0000,-4.88747E+006,413.407
212.9000,-5.66831E+006,413.668
212.8000,-5.97651E+006,413.93
212.7000,-6.4657E+006,414.19
212.6000,-6.68972E+006,414.455
212.5000,-6.93498E+006,414.718
212.4000,-6.18879E+006,414.992
212.3000,-5.94015E+006,415.259
212.2000,-5.80299E+006,415.524
212.1000,-5.76905E+006,415.792
212.0000,-5.7202E+006,416.068
211.9000,-5.3043E+006,416.352
211.8000,-5.26259E+006,416.627
211.7000,-5.46971E+006,416.905
211.6000,-5.89098E+006,417.181
211.5000,-6.55648E+006,417.454
211.4000,-7.05803E+006,417.735
211.3000,-7.08514E+006,418.02
211.2000,-6.83995E+006,418.301
211.1000,-6.71447E+006,418.583
211.0000,-7.08214E+006,418.866
210.9000,-7.15465E+006,419.153
210.8000,-6.91527E+006,419.441
210.7000,-6.4744E+006,419.741
210.6000,-6.28198E+006,420.037
210.5000,-6.07531E+006,420.339
210.4000,-6.11654E+006,420.643
210.3000,-6.79828E+006,420.948
210.2000,-7.29745E+006,421.25
210.1000,-7.43982E+006,421.56
210.0000,-8.20273E+006,421.866
209.9000,-8.50287E+006,422.175
209.8000,-8.9589E+006,422.479
209.7000,-9.15085E+006,422.789
209.6000,-9.1623E+006,423.096
209.5000,-8.86701E+006,423.409
209.4000,-8.13329E+006,423.725
209.3000,-8.62145E+006,424.03
209.2000,-7.99748E+006,424.348
209.1000,-7.89083E+006,424.663
209.0000,-7.67839E+006,424.98
208.9000,-7.30867E+006,425.301
208.8000,-7.50836E+006,425.616
208.7000,-7.51013E+006,425.932
208.6000,-6.94777E+006,426.264
208.5000,-5.99363E+006,426.599
208.4000,-5.54726E+006,426.929
208.3000,-5.17469E+006,427.263
208.2000,-4.42589E+006,427.603
208.1000,-4.60576E+006,427.937
208.0000,-4.24471E+006,428.276
207.9000,-4.11982E+006,428.618
207.8000,-4.17453E+006,428.956
207.7000,-4.52777E+006,429.291
207.6000,-4.69584E+006,429.631
207.5000,-4.57502E+006,429.971
207.4000,-5.18313E+006,430.304
207.3000,-5.74885E+006,430.634
207.2000,-6.14062E+006,430.967
207.1000,-6.00475E+006,431.303
207.0000,-5.7747E+006,431.642
206.9000,-5.67858E+006,431.981
206.8000,-5.80635E+006,432.316
206.7000,-5.68534E+006,432.654
206.6000,-5.79697E+006,432.991
206.5000,-5.23757E+006,433.336
206.4000,-4.70336E+006,433.683
206.3000,-4.3162E+006,434.031
206.2000,-4.37104E+006,434.371
206.1000,-4.50118E+006,434.706
206.0000,-4.77736E+006,435.042
205.9000,-5.09248E+006,435.377
205.8000,-4.80257E+006,435.72
205.7000,-4.74779E+006,436.064
205.6000,-5.56907E+006,436.402
205.5000,-6.52554E+006,436.739
205.4000,-7.10105E+006,437.078
205.3000,-7.27349E+006,437.429
205.2000,-7.15783E+006,437.786
205.1000,-7.0328E+006,438.145
205.0000,-6.86642E+006,438.505
204.9000,-6.5799E+006,438.868
204.8000,-5.75838E+006,439.24
204.7000,-4.98434E+006,439.615
204.6000,-3.93368E+006,439.996
204.5000,-3.79896E+006,440.372
204.4000,-3.60387E+006,440.748
204.3000,-2.96727E+006,441.133
204.2000,-3.26315E+006,441.511
204.1000,-3.53817E+006,441.892
204.0000,-4.12133E+006,442.272
203.9000,-4.60356E+006,442.654
203.8000,-4.88376E+006,443.043
203.7000,-4.2569E+006,443.439
203.6000,-3.44356E+006,443.843
203.5000,-3.06093E+006,444.245
203.4000,-2.17965E+006,444.656
203.3000,-1.89674E+006,445.066
203.2000,-1.96679E+006,445.476
203.1000,-1.19697E+006,445.897
203.0000,-1.12795E+006,446.315
202.9000,-1.15921E+006,446.738
202.8000,-1.6714E+006,447.153
202.7000,-1.76254E+006,447.579
202.6000,-1.5546E+006,448.008
202.5000,-1.06003E+006,448.441
202.4000,300132,448.88
202.3000,1.09435E+006,449.317
202.2000,1.18178E+006,449.751
202.1000,1.23235E+006,450.187
202.0000,1.81371E+006,450.635
201.9000,2.60977E+006,451.091
201.8000,1.94733E+006,451.539
201.7000,272398,451.987
201.6000,-978509,452.446
201.5000,-1.36922E+006,452.918
201.4000,-751550,453.404
201.3000,-176745,453.9
201.2000,184678,454.398
201.1000,55785.9,454.897
201.0000,966364,455.408
200.9000,2.41714E+006,455.926
200.8000,3.60268E+006,456.45
200.7000,3.23074E+006,456.97
200.6000,2.9225E+006,457.499
200.5000,2.96841E+006,458.04
200.4000,2.18588E+006,458.586
200.3000,1.44519E+006,459.142
200.2000,473181,459.703
200.1000,177817,460.274
200.0000,600015,460.854
199.9000,1.05388E+006,461.436
199.8000,627996,462.007
199.7000,899863,462.576
199.6000,1.35346E+006,463.146
199.5000,2.1124E+006,463.717
199.4000,2.75793E+006,464.288
199.3000,2.98004E+006,464.859
199.2000,2.27562E+006,465.433
199.1000,1.8943E+006,466.018
199.0000,2.59001E+006,466.625
198.9000,3.92266E+006,467.253
198.8000,4.53631E+006,467.888
198.7000,5.39997E+006,468.547
198.6000,6.65469E+006,469.227
198.5000,8.04054E+006,469.929
198.4000,9.4722E+006,470.645
198.3000,1.06652E+007,471.374
198.2000,1.147E+007,472.128
198.1000,1.0901E+007,472.893
198.0000,9.60912E+006,473.687
197.9000,8.42257E+006,474.501
197.8000,7.70374E+006,475.337
197.7000,6.9281E+006,476.191
197.6000,6.38949E+006,477.06
197.5000,6.03855E+006,477.94
197.4000,6.67243E+006,478.822
197.3000,7.21669E+006,479.69
197.2000,7.92089E+006,480.53
197.1000,9.47701E+006,481.344
197.0000,1.08419E+007,482.142
196.9000,1.19285E+007,482.926
196.8000,1.17641E+007,483.696
196.7000,1.1795E+007,484.486
196.6000,1.12424E+007,485.293
196.5000,1.0952E+007,486.139
196.4000,1.09708E+007,487.043
196.3000,1.08398E+007,488.002
196.2000,1.06183E+007,489.018
196.1000,9.69491E+006,490.093
196.0000,9.53684E+006,491.248
195.9000,9.38786E+006,492.483
195.8000,8.6904E+006,493.817
195.7000,7.26279E+006,495.257
195.6000,6.96522E+006,496.817
195.5000,7.48035E+006,498.507
195.4000,7.75318E+006,500.287
195.3000,8.23635E+006,502.127
195.2000,9.1101E+006,503.992
195.1000,9.42E+006,505.849
195.0000,9.74081E+006,507.623
194.9000,1.19808E+007,509.275
194.8000,1.35535E+007,510.753
194.7000,1.37354E+007,512.041
194.6000,1.28831E+007,513.181
194.5000,1.29827E+007,514.229
194.4000,1.30477E+007,515.224
194.3000,1.45036E+007,516.202
194.2000,1.48297E+007,517.219
194.1000,1.43033E+007,518.352
194.0000,1.36782E+007,519.661
193.9000,1.33952E+007,521.186
193.8000,1.44038E+007,522.958
193.7000,1.41427E+007,524.987
193.6000,1.33506E+007,527.293
193.5000,1.22326E+007,529.927
193.4000,1.21226E+007,532.934
193.3000,1.22387E+007,536.314
193.2000,1.34593E+007,540.031
193.1000,1.48873E+007,544.013
193.0000,1.622E+007,548.16
192.9000,1.58931E+007,552.317
192.8000,1.60481E+007,556.387
192.7000,1.76163E+007,560.192
192.6000,2.0423E+007,563.528
192.5000,2.19267E+007,566.264
192.4000,2.22518E+007,568.423
192.3000,2.2926E+007,570.098
192.2000,2.14783E+007,571.362
192.1000,2.20236E+007,572.381
192.0000,2.27531E+007,573.276
191.9000,2.26777E+007,574.227
191.8000,1.95503E+007,575.467
191.7000,1.83631E+007,577.23
191.6000,1.82794E+007,579.576
191.5000,1.71686E+007,582.498
191.4000,1.67694E+007,586.01
191.3000,1.64573E+007,590.171
191.2000,1.70796E+007,595.016
191.1000,1.88893E+007,600.532
191.0000,2.00271E+007,606.6
190.9000,2.04735E+007,613.085
190.8000,2.07312E+007,619.847
190.7000,2.09305E+007,626.714
190.6000,2.02851E+007,633.505
190.5000,2.09933E+007,639.959
190.4000,2.18437E+007,645.764
190.3000,2.34095E+007,650.735
190.2000,2.09338E+007,654.827
190.1000,2.02333E+007,658.167
190.0000,2.23119E+007,660.915

##### Extended Information
[Comments]
Sample name,ACE2
Comment
User
Division
Company,CSIR-IMTECH

[Detailed Information]
Creation date,4/9/2024 1:49 PM

Data array type,Linear data array * 2
Horizontal axis,Wavelength [nm]
Vertical axis(1),Mol. Ellip.
Vertical axis(2),HT [V]
Start,350 nm
End,190 nm
Data interval,0.1 nm
Data points,1601    

[Measurement Information]
Instrument Name,JASCO CD
Model Name,J-815
Serial No.,B063061168

Accessory,PTC-423S
Accessory S/N,C013945-01
  Temperature,37.91 C
  Control Sonsor,Cell
  Monitor Sensor,Cell
  Start Mode,Start immediately
  Cell Length,10 mm

Measurement date,4/9/2024 1:48 PM

Photometric Mode,CD, HT
Measure Range,350 - 190 nm
Data pitch,0.1 nm
Sensitivity,Standard
D.I.T.,1 sec
Bandwidth,1.00 nm
Start Mode,Immediately
Scanning Speed,50 nm/min
Baseline Correction,None
Shutter Control,Auto
CD Detector,PMT
PMT Voltage,Auto
Accumulations,3
Concentration,0.27 umol/L

