TITLE	ACE2_doxer_0.8uM
DATA TYPE	
ORIGIN	JASCO
OWNER	
DATE	24/04/08
TIME	19:22:31
SPECTROMETER/DATA SYSTEM	
LOCALE	1033
RESOLUTION	
DELTAX	-0.1
XUNITS	NANOMETERS
YUNITS	Mol. Ellip.
Y2UNITS	HT [V]
FIRSTX	  350.0000
LASTX	  190.0000
NPOINTS	    1601
FIRSTY	1733716.12500
MAXY	30781816.00000
MINY	-9634973.00000
XYDATA
350.0000	1.73372E+006	493.012
349.9000	733835	492.388
349.8000	92779.3	491.462
349.7000	-122119	490.533
349.6000	-802685	489.865
349.5000	-1.26348E+006	489.273
349.4000	-2.07963E+006	488.36
349.3000	-2.56795E+006	487.706
349.2000	-1.24401E+006	487.154
349.1000	11766.1	486.267
349.0000	860967	485.604
348.9000	701242	485.003
348.8000	1.41105E+006	484.089
348.7000	1.75597E+006	483.157
348.6000	1.21598E+006	482.468
348.5000	894251	481.867
348.4000	460078	480.923
348.3000	220710	480.226
348.2000	401369	479.616
348.1000	1.55081E+006	478.71
348.0000	1.62727E+006	478.027
347.9000	1.18368E+006	477.425
347.8000	1.27591E+006	476.549
347.7000	1.96431E+006	475.667
347.6000	2.36473E+006	475.042
347.5000	2.0626E+006	474.514
347.4000	499734	473.662
347.3000	-999634	473.023
347.2000	-2.23667E+006	472.476
347.1000	-1.99386E+006	471.673
347.0000	-1.78696E+006	471.069
346.9000	-2.04185E+006	470.534
346.8000	-2.60207E+006	469.712
346.7000	-2.428E+006	468.884
346.6000	-940839	468.289
346.5000	271099	467.496
346.4000	1.22046E+006	466.692
346.3000	1.44173E+006	466.068
346.2000	1.65753E+006	465.244
346.1000	1.70982E+006	464.409
346.0000	2.03251E+006	463.79
345.9000	2.19696E+006	463.247
345.8000	559808	462.382
345.7000	-768397	461.74
345.6000	-1.64036E+006	461.186
345.5000	-1.59772E+006	460.402
345.4000	-1.97158E+006	459.826
345.3000	-2.17267E+006	459.333
345.2000	-2.70044E+006	458.566
345.1000	-3.44549E+006	457.791
345.0000	-2.93148E+006	457.238
344.9000	-1.95151E+006	456.538
344.8000	-1.87503E+006	455.818
344.7000	-2.02023E+006	455.262
344.6000	-2.5796E+006	454.538
344.5000	-3.19055E+006	453.803
344.4000	-2.69306E+006	453.261
344.3000	-1.74874E+006	452.559
344.2000	-1.93177E+006	451.84
344.1000	-1.98453E+006	451.299
344.0000	-2.38549E+006	450.591
343.9000	-2.10967E+006	449.88
343.8000	-1.72329E+006	449.358
343.7000	-600710	448.909
343.6000	-250174	448.22
343.5000	-618997	447.713
343.4000	-766753	447.275
343.3000	-899856	446.572
343.2000	-1.31277E+006	446.046
343.1000	-1.33032E+006	445.596
343.0000	-1.21581E+006	444.963
342.9000	-1.32526E+006	444.317
342.8000	-938967	443.84
342.7000	-774942	443.186
342.6000	-489178	442.522
342.5000	-408289	442.043
342.4000	-283217	441.455
342.3000	37543.6	440.863
342.2000	366680	440.397
342.1000	77258.9	439.774
342.0000	245473	439.151
341.9000	358749	438.708
341.8000	1.06748E+006	438.127
341.7000	1.28055E+006	437.53
341.6000	1.92142E+006	437.081
341.5000	2.03693E+006	436.494
341.4000	2.23173E+006	435.901
341.3000	2.52158E+006	435.456
341.2000	1.8027E+006	434.852
341.1000	1.12648E+006	434.238
341.0000	47946.7	433.777
340.9000	-1.12578E+006	433.182
340.8000	-2.08221E+006	432.577
340.7000	-2.88191E+006	432.111
340.6000	-3.11733E+006	431.546
340.5000	-3.27015E+006	430.974
340.4000	-3.40608E+006	430.556
340.3000	-3.74E+006	429.985
340.2000	-3.8604E+006	429.408
340.1000	-3.1143E+006	428.99
340.0000	-1.87577E+006	428.475
339.9000	-1.13158E+006	427.952
339.8000	-964353	427.547
339.7000	-1.2766E+006	427.025
339.6000	-1.16677E+006	426.501
339.5000	-632236	426.138
339.4000	-345048	425.658
339.3000	-260500	425.155
339.2000	-712121	424.601
339.1000	-1.02801E+006	424.107
339.0000	-1.07138E+006	423.604
338.9000	-1.55119E+006	423.033
338.8000	-1.54047E+006	422.514
338.7000	-1.33255E+006	421.989
338.6000	-1.51386E+006	421.412
338.5000	-2.16446E+006	420.894
338.4000	-3.14594E+006	420.504
338.3000	-4.13379E+006	420.023
338.2000	-4.29827E+006	419.54
338.1000	-3.74743E+006	419.199
338.0000	-3.07943E+006	418.743
337.9000	-2.99745E+006	418.277
337.8000	-2.73968E+006	417.95
337.7000	-1.93031E+006	417.539
337.6000	-1.24519E+006	417.113
337.5000	-795032	416.785
337.4000	-695670	416.367
337.3000	-814366	415.934
337.2000	-906041	415.448
337.1000	-1.26092E+006	415.014
337.0000	-1.91563E+006	414.568
336.9000	-1.88775E+006	414.084
336.8000	-2.48151E+006	413.65
336.7000	-2.47355E+006	413.217
336.6000	-1.67832E+006	412.738
336.5000	-964527	412.296
336.4000	-1.07741E+006	411.98
336.3000	-907327	411.549
336.2000	-497458	411.112
336.1000	-518773	410.784
336.0000	160280	410.391
335.9000	510206	409.981
335.8000	108683	409.528
335.7000	-521713	409.126
335.6000	-367699	408.731
335.5000	-500101	408.328
335.4000	-806160	407.985
335.3000	-955863	407.635
335.2000	-1.52663E+006	407.253
335.1000	-1.49104E+006	406.913
335.0000	-1.19375E+006	406.688
334.9000	-1.49876E+006	406.341
334.8000	-2.03508E+006	405.967
334.7000	-1.91695E+006	405.564
334.6000	-1.96007E+006	405.207
334.5000	-1.8412E+006	404.843
334.4000	-1.23707E+006	404.42
334.3000	-927545	404.03
334.2000	-398379	403.637
334.1000	589022	403.212
334.0000	1.69657E+006	402.847
333.9000	2.27305E+006	402.575
333.8000	2.63307E+006	402.222
333.7000	2.83373E+006	401.858
333.6000	2.64755E+006	401.456
333.5000	2.03407E+006	401.105
333.4000	1.62222E+006	400.745
333.3000	1.153E+006	400.373
333.2000	624850	400.048
333.1000	593156	399.721
333.0000	189776	399.361
332.9000	-173023	399.034
332.8000	-245634	398.674
332.7000	-89418.8	398.361
332.6000	-124444	398.039
332.5000	-668739	397.678
332.4000	-823457	397.362
332.3000	-1.80305E+006	397.037
332.2000	-2.34389E+006	396.668
332.1000	-2.26979E+006	396.336
332.0000	-2.46655E+006	395.977
331.9000	-2.52964E+006	395.67
331.8000	-2.40638E+006	395.361
331.7000	-2.13256E+006	395.008
331.6000	-2.03493E+006	394.685
331.5000	-1.65913E+006	394.242
331.4000	-1.18083E+006	393.894
331.3000	-957905	393.588
331.2000	-339013	393.255
331.1000	-61851	392.957
331.0000	-76870	392.649
330.9000	98303.2	392.336
330.8000	-117465	392.057
330.7000	-23423.2	391.751
330.6000	372784	391.483
330.5000	391952	391.208
330.4000	-181727	390.893
330.3000	-425104	390.618
330.2000	-27374.8	390.244
330.1000	-263322	389.936
330.0000	-129608	389.667
329.9000	-158405	389.357
329.8000	-449781	389.076
329.7000	-930744	388.71
329.6000	-1.08828E+006	388.429
329.5000	-1.15799E+006	388.189
329.4000	-1.46811E+006	387.884
329.3000	-1.48476E+006	387.608
329.2000	-1.32642E+006	387.233
329.1000	-1.23814E+006	386.945
329.0000	-1.40367E+006	386.696
328.9000	-1.71154E+006	386.399
328.8000	-1.80201E+006	386.126
328.7000	-1.71851E+006	385.761
328.6000	-1.72578E+006	385.492
328.5000	-1.89175E+006	385.268
328.4000	-2.17756E+006	384.989
328.3000	-2.34141E+006	384.741
328.2000	-2.30081E+006	384.424
328.1000	-2.03007E+006	384.185
328.0000	-1.68298E+006	383.985
327.9000	-1.38955E+006	383.711
327.8000	-1.07394E+006	383.463
327.7000	-934769	383.196
327.6000	-650124	383.021
327.5000	-699101	382.886
327.4000	-800503	382.603
327.3000	-840031	382.336
327.2000	-721236	382.016
327.1000	-818535	381.789
327.0000	-1.15032E+006	381.609
326.9000	-1.40321E+006	381.312
326.8000	-1.59305E+006	381.004
326.7000	-1.63634E+006	380.668
326.6000	-1.55209E+006	380.472
326.5000	-1.3017E+006	380.348
326.4000	-1.25836E+006	380.083
326.3000	-1.35572E+006	379.821
326.2000	-1.70982E+006	379.551
326.1000	-1.87716E+006	379.378
326.0000	-2.17658E+006	379.056
325.9000	-2.46516E+006	378.748
325.8000	-2.30681E+006	378.445
325.7000	-2.33811E+006	378.169
325.6000	-2.67594E+006	378.017
325.5000	-2.87488E+006	377.712
325.4000	-2.6304E+006	377.408
325.3000	-2.30283E+006	377.095
325.2000	-2.11095E+006	376.928
325.1000	-1.92683E+006	376.837
325.0000	-1.91847E+006	376.573
324.9000	-1.74022E+006	376.286
324.8000	-1.32094E+006	375.982
324.7000	-1.0949E+006	375.833
324.6000	-1.10071E+006	375.761
324.5000	-1.14086E+006	375.494
324.4000	-1.14789E+006	375.212
324.3000	-1.2593E+006	374.951
324.2000	-1.43184E+006	374.81
324.1000	-1.59886E+006	374.534
324.0000	-1.7486E+006	374.251
323.9000	-1.75802E+006	373.957
323.8000	-1.66706E+006	373.695
323.7000	-1.48644E+006	373.572
323.6000	-1.09195E+006	373.305
323.5000	-847619	373.005
323.4000	-671677	372.715
323.3000	-674511	372.57
323.2000	-872794	372.488
323.1000	-746622	372.23
323.0000	-946009	371.941
322.9000	-929241	371.642
322.8000	-1.16292E+006	371.492
322.7000	-1.22925E+006	371.224
322.6000	-1.30844E+006	370.924
322.5000	-1.36009E+006	370.618
322.4000	-1.20264E+006	370.314
322.3000	-1.30978E+006	370.126
322.2000	-1.53227E+006	369.81
322.1000	-1.58195E+006	369.478
322.0000	-1.7926E+006	369.153
321.9000	-1.63243E+006	368.973
321.8000	-1.49779E+006	368.689
321.7000	-1.32399E+006	368.389
321.6000	-1.17164E+006	368.08
321.5000	-1.19841E+006	367.797
321.4000	-878158	367.66
321.3000	-647025	367.444
321.2000	-575927	367.216
321.1000	-971474	366.99
321.0000	-1.53346E+006	366.901
320.9000	-1.53791E+006	366.74
320.8000	-1.92822E+006	366.577
320.7000	-2.06546E+006	366.423
320.6000	-2.15732E+006	366.267
320.5000	-2.41669E+006	366.221
320.4000	-2.40608E+006	366.055
320.3000	-2.06819E+006	365.876
320.2000	-1.74185E+006	365.719
320.1000	-1.29187E+006	365.669
320.0000	-1.07363E+006	365.509
319.9000	-961405	365.328
319.8000	-904538	365.131
319.7000	-872266	364.925
319.6000	-1.10664E+006	364.699
319.5000	-1.04135E+006	364.535
319.4000	-761978	364.345
319.3000	-1.11409E+006	364.117
319.2000	-1.4298E+006	364
319.1000	-1.40415E+006	363.797
319.0000	-1.61913E+006	363.584
318.9000	-1.77914E+006	363.374
318.8000	-1.70191E+006	363.264
318.7000	-1.7511E+006	363.041
318.6000	-2.03704E+006	362.805
318.5000	-2.02333E+006	362.601
318.4000	-1.76798E+006	362.397
318.3000	-1.73176E+006	362.177
318.2000	-1.90964E+006	362.006
318.1000	-1.96301E+006	361.833
318.0000	-1.83194E+006	361.637
317.9000	-1.79096E+006	361.554
317.8000	-1.85975E+006	361.433
317.7000	-2.1424E+006	361.292
317.6000	-2.42544E+006	361.102
317.5000	-2.62635E+006	360.996
317.4000	-2.48473E+006	360.827
317.3000	-2.52496E+006	360.645
317.2000	-2.71236E+006	360.449
317.1000	-3.04832E+006	360.247
317.0000	-3.1275E+006	359.97
316.9000	-3.29867E+006	359.722
316.8000	-3.1029E+006	359.512
316.7000	-2.86774E+006	359.308
316.6000	-2.9204E+006	359.104
316.5000	-2.62133E+006	358.936
316.4000	-2.29899E+006	358.755
316.3000	-2.25305E+006	358.572
316.2000	-2.45227E+006	358.409
316.1000	-2.20792E+006	358.307
316.0000	-2.06276E+006	358.198
315.9000	-2.23348E+006	358.037
315.8000	-2.31297E+006	357.928
315.7000	-2.53952E+006	357.743
315.6000	-2.70586E+006	357.583
315.5000	-2.69504E+006	357.405
315.4000	-2.41118E+006	357.29
315.3000	-2.2947E+006	357.071
315.2000	-2.50301E+006	356.838
315.1000	-2.29486E+006	356.642
315.0000	-1.94748E+006	356.459
314.9000	-1.97222E+006	356.276
314.8000	-2.07684E+006	356.122
314.7000	-2.13112E+006	355.958
314.6000	-2.18419E+006	355.795
314.5000	-2.39845E+006	355.648
314.4000	-2.2903E+006	355.551
314.3000	-2.39612E+006	355.412
314.2000	-2.56239E+006	355.268
314.1000	-2.48414E+006	355.082
314.0000	-2.26721E+006	354.919
313.9000	-2.12811E+006	354.753
313.8000	-1.6616E+006	354.599
313.7000	-1.38271E+006	354.369
313.6000	-1.45789E+006	354.154
313.5000	-1.64107E+006	353.957
313.4000	-1.82543E+006	353.768
313.3000	-2.01302E+006	353.594
313.2000	-2.01535E+006	353.452
313.1000	-1.81994E+006	353.304
313.0000	-2.07798E+006	353.154
312.9000	-2.20059E+006	353.018
312.8000	-2.0685E+006	352.93
312.7000	-1.79688E+006	352.805
312.6000	-1.39754E+006	352.681
312.5000	-1.14533E+006	352.515
312.4000	-988184	352.355
312.3000	-922317	352.176
312.2000	-946611	351.997
312.1000	-1.01895E+006	351.754
312.0000	-1.24452E+006	351.525
311.9000	-1.26851E+006	351.314
311.8000	-1.21894E+006	351.07
311.7000	-1.20628E+006	350.874
311.6000	-1.48466E+006	350.675
311.5000	-1.8613E+006	350.505
311.4000	-2.06824E+006	350.297
311.3000	-1.962E+006	350.173
311.2000	-1.70456E+006	350.056
311.1000	-1.56609E+006	349.952
311.0000	-1.72423E+006	349.827
310.9000	-1.57539E+006	349.727
310.8000	-1.20884E+006	349.615
310.7000	-659726	349.518
310.6000	-352532	349.383
310.5000	-577565	349.258
310.4000	-598020	349.144
310.3000	-898552	349.04
310.2000	-1.19569E+006	348.949
310.1000	-1.51998E+006	348.876
310.0000	-1.88635E+006	348.793
309.9000	-2.22537E+006	348.719
309.8000	-2.228E+006	348.653
309.7000	-2.33291E+006	348.563
309.6000	-2.68357E+006	348.486
309.5000	-2.67134E+006	348.365
309.4000	-2.46695E+006	348.268
309.3000	-2.51548E+006	348.12
309.2000	-2.2132E+006	348.003
309.1000	-2.04725E+006	347.821
309.0000	-2.11422E+006	347.668
308.9000	-2.11379E+006	347.532
308.8000	-1.92841E+006	347.41
308.7000	-2.12048E+006	347.3
308.6000	-2.09211E+006	347.203
308.5000	-2.21403E+006	347.095
308.4000	-2.43743E+006	346.975
308.3000	-2.6934E+006	346.906
308.2000	-2.72611E+006	346.796
308.1000	-2.86497E+006	346.706
308.0000	-2.96169E+006	346.601
307.9000	-2.6983E+006	346.513
307.8000	-2.49251E+006	346.368
307.7000	-2.46362E+006	346.251
307.6000	-2.38058E+006	346.121
307.5000	-2.45518E+006	345.939
307.4000	-2.65261E+006	345.803
307.3000	-2.94994E+006	345.678
307.2000	-3.05611E+006	345.575
307.1000	-3.01739E+006	345.429
307.0000	-3.33981E+006	345.323
306.9000	-3.31309E+006	345.224
306.8000	-3.18306E+006	345.16
306.7000	-3.28847E+006	345.087
306.6000	-3.48721E+006	344.996
306.5000	-3.46741E+006	344.912
306.4000	-3.48458E+006	344.781
306.3000	-3.52767E+006	344.687
306.2000	-3.05741E+006	344.568
306.1000	-2.65308E+006	344.461
306.0000	-2.5293E+006	344.309
305.9000	-2.431E+006	344.198
305.8000	-2.1021E+006	344.117
305.7000	-1.85808E+006	344.001
305.6000	-1.69425E+006	343.917
305.5000	-1.57622E+006	343.83
305.4000	-1.8483E+006	343.772
305.3000	-2.41144E+006	343.668
305.2000	-2.83205E+006	343.598
305.1000	-3.05701E+006	343.516
305.0000	-3.30798E+006	343.393
304.9000	-3.41167E+006	343.309
304.8000	-3.41205E+006	343.199
304.7000	-3.40763E+006	343.103
304.6000	-3.36247E+006	342.97
304.5000	-3.17563E+006	342.863
304.4000	-3.02974E+006	342.773
304.3000	-3.07218E+006	342.654
304.2000	-2.90868E+006	342.586
304.1000	-2.76685E+006	342.519
304.0000	-2.84859E+006	342.48
303.9000	-3.03213E+006	342.392
303.8000	-3.10271E+006	342.31
303.7000	-3.44534E+006	342.252
303.6000	-3.58863E+006	342.145
303.5000	-3.60857E+006	342.073
303.4000	-3.70491E+006	341.98
303.3000	-3.56786E+006	341.862
303.2000	-3.47472E+006	341.746
303.1000	-3.26451E+006	341.653
303.0000	-3.4103E+006	341.595
302.9000	-3.30743E+006	341.498
302.8000	-3.24593E+006	341.422
302.7000	-3.20032E+006	341.36
302.6000	-3.17193E+006	341.274
302.5000	-3.34836E+006	341.224
302.4000	-3.39077E+006	341.164
302.3000	-3.31329E+006	341.066
302.2000	-3.05891E+006	340.972
302.1000	-2.87129E+006	340.882
302.0000	-2.73121E+006	340.819
301.9000	-2.59781E+006	340.725
301.8000	-2.23489E+006	340.646
301.7000	-2.06922E+006	340.581
301.6000	-2.21241E+006	340.484
301.5000	-2.41576E+006	340.432
301.4000	-2.65365E+006	340.379
301.3000	-2.80363E+006	340.298
301.2000	-3.10971E+006	340.225
301.1000	-3.30145E+006	340.164
301.0000	-3.58158E+006	340.131
300.9000	-3.86955E+006	340.052
300.8000	-4.09142E+006	339.971
300.7000	-4.17436E+006	339.909
300.6000	-4.13729E+006	339.825
300.5000	-3.88197E+006	339.761
300.4000	-3.64412E+006	339.713
300.3000	-3.66908E+006	339.63
300.2000	-3.88157E+006	339.549
300.1000	-3.89227E+006	339.49
300.0000	-3.71522E+006	339.429
299.9000	-3.54302E+006	339.375
299.8000	-3.48616E+006	339.324
299.7000	-3.60581E+006	339.255
299.6000	-3.81611E+006	339.19
299.5000	-3.43881E+006	339.128
299.4000	-3.12017E+006	339.079
299.3000	-2.92941E+006	339.008
299.2000	-2.86015E+006	338.95
299.1000	-2.92602E+006	338.903
299.0000	-2.8865E+006	338.832
298.9000	-3.08203E+006	338.777
298.8000	-3.27959E+006	338.737
298.7000	-3.42921E+006	338.676
298.6000	-3.6132E+006	338.627
298.5000	-3.43796E+006	338.577
298.4000	-3.65022E+006	338.512
298.3000	-3.65338E+006	338.454
298.2000	-3.76679E+006	338.392
298.1000	-3.77799E+006	338.329
298.0000	-3.49885E+006	338.274
297.9000	-3.2517E+006	338.223
297.8000	-3.16934E+006	338.152
297.7000	-3.28922E+006	338.093
297.6000	-3.26329E+006	338.049
297.5000	-3.07248E+006	337.982
297.4000	-2.90823E+006	337.936
297.3000	-2.79623E+006	337.894
297.2000	-2.62329E+006	337.826
297.1000	-2.61307E+006	337.772
297.0000	-2.6265E+006	337.719
296.9000	-2.68526E+006	337.645
296.8000	-2.65945E+006	337.588
296.7000	-2.57228E+006	337.542
296.6000	-2.68052E+006	337.506
296.5000	-2.59134E+006	337.456
296.4000	-2.69777E+006	337.417
296.3000	-2.81871E+006	337.389
296.2000	-2.89091E+006	337.348
296.1000	-2.75216E+006	337.316
296.0000	-2.48801E+006	337.293
295.9000	-2.54838E+006	337.246
295.8000	-2.41212E+006	337.18
295.7000	-2.41693E+006	337.135
295.6000	-2.5261E+006	337.086
295.5000	-2.47879E+006	337.017
295.4000	-2.55756E+006	336.938
295.3000	-2.73876E+006	336.887
295.2000	-2.91358E+006	336.824
295.1000	-3.05873E+006	336.75
295.0000	-3.23538E+006	336.706
294.9000	-3.45099E+006	336.653
294.8000	-3.349E+006	336.583
294.7000	-3.39866E+006	336.541
294.6000	-3.4716E+006	336.505
294.5000	-3.33895E+006	336.454
294.4000	-3.34735E+006	336.413
294.3000	-3.46001E+006	336.382
294.2000	-3.41874E+006	336.331
294.1000	-3.29712E+006	336.292
294.0000	-3.3863E+006	336.266
293.9000	-3.36388E+006	336.217
293.8000	-3.35514E+006	336.185
293.7000	-3.58642E+006	336.159
293.6000	-3.76784E+006	336.105
293.5000	-3.51777E+006	336.043
293.4000	-3.46176E+006	336.013
293.3000	-3.62739E+006	335.96
293.2000	-3.79496E+006	335.899
293.1000	-3.81726E+006	335.869
293.0000	-3.97831E+006	335.816
292.9000	-4.03748E+006	335.76
292.8000	-4.12907E+006	335.733
292.7000	-4.4359E+006	335.702
292.6000	-4.76549E+006	335.658
292.5000	-4.62962E+006	335.603
292.4000	-4.42453E+006	335.573
292.3000	-4.07454E+006	335.527
292.2000	-3.68373E+006	335.483
292.1000	-3.31125E+006	335.459
292.0000	-3.17061E+006	335.413
291.9000	-3.01209E+006	335.36
291.8000	-2.66796E+006	335.314
291.7000	-2.47764E+006	335.295
291.6000	-2.33532E+006	335.253
291.5000	-2.15627E+006	335.207
291.4000	-2.31119E+006	335.181
291.3000	-2.35434E+006	335.127
291.2000	-2.30284E+006	335.061
291.1000	-2.41631E+006	334.994
291.0000	-2.61775E+006	334.944
290.9000	-2.82395E+006	334.87
290.8000	-2.98274E+006	334.776
290.7000	-3.51075E+006	334.671
290.6000	-4.12218E+006	334.556
290.5000	-4.54118E+006	334.417
290.4000	-4.81039E+006	334.276
290.3000	-4.58125E+006	334.157
290.2000	-4.51267E+006	334.012
290.1000	-4.38945E+006	333.858
290.0000	-4.30538E+006	333.719
289.9000	-4.11956E+006	333.624
289.8000	-3.91627E+006	333.538
289.7000	-3.62758E+006	333.479
289.6000	-3.18677E+006	333.459
289.5000	-3.08673E+006	333.473
289.4000	-3.0834E+006	333.511
289.3000	-3.04876E+006	333.584
289.2000	-2.81004E+006	333.676
289.1000	-2.80745E+006	333.79
289.0000	-2.69926E+006	333.897
288.9000	-2.78319E+006	334.001
288.8000	-2.99907E+006	334.093
288.7000	-2.99936E+006	334.177
288.6000	-2.89828E+006	334.24
288.5000	-2.78751E+006	334.285
288.4000	-3.10779E+006	334.308
288.3000	-3.34147E+006	334.322
288.2000	-3.41136E+006	334.316
288.1000	-3.55884E+006	334.304
288.0000	-3.2489E+006	334.284
287.9000	-3.15513E+006	334.248
287.8000	-3.14832E+006	334.223
287.7000	-3.20241E+006	334.192
287.6000	-3.27054E+006	334.167
287.5000	-3.14289E+006	334.128
287.4000	-2.95562E+006	334.109
287.3000	-2.65437E+006	334.092
287.2000	-2.69875E+006	334.071
287.1000	-2.83004E+006	334.052
287.0000	-2.81566E+006	334.01
286.9000	-2.60182E+006	333.989
286.8000	-2.40528E+006	333.976
286.7000	-2.19155E+006	333.959
286.6000	-2.19807E+006	333.933
286.5000	-2.10315E+006	333.921
286.4000	-2.003E+006	333.913
286.3000	-1.86858E+006	333.911
286.2000	-1.84193E+006	333.905
286.1000	-1.78845E+006	333.896
286.0000	-1.7664E+006	333.896
285.9000	-1.80358E+006	333.886
285.8000	-1.86264E+006	333.88
285.7000	-2.04686E+006	333.852
285.6000	-2.43252E+006	333.825
285.5000	-2.81202E+006	333.821
285.4000	-3.13109E+006	333.819
285.3000	-3.66787E+006	333.819
285.2000	-3.79616E+006	333.796
285.1000	-3.94325E+006	333.783
285.0000	-4.06676E+006	333.79
284.9000	-4.02466E+006	333.787
284.8000	-3.89695E+006	333.791
284.7000	-3.59828E+006	333.766
284.6000	-3.44439E+006	333.749
284.5000	-3.1759E+006	333.753
284.4000	-3.27634E+006	333.751
284.3000	-3.38479E+006	333.758
284.2000	-3.29362E+006	333.736
284.1000	-3.42607E+006	333.724
284.0000	-3.51661E+006	333.699
283.9000	-3.70931E+006	333.699
283.8000	-3.65612E+006	333.71
283.7000	-3.71131E+006	333.693
283.6000	-3.67278E+006	333.684
283.5000	-3.48558E+006	333.672
283.4000	-3.34261E+006	333.664
283.3000	-3.1458E+006	333.677
283.2000	-3.21969E+006	333.692
283.1000	-3.12911E+006	333.7
283.0000	-3.02753E+006	333.69
282.9000	-2.84482E+006	333.686
282.8000	-2.71933E+006	333.68
282.7000	-2.84064E+006	333.692
282.6000	-3.15657E+006	333.708
282.5000	-3.42359E+006	333.708
282.4000	-3.32375E+006	333.704
282.3000	-3.21651E+006	333.699
282.2000	-3.33397E+006	333.694
282.1000	-3.41153E+006	333.71
282.0000	-3.61594E+006	333.726
281.9000	-3.46519E+006	333.731
281.8000	-3.36124E+006	333.729
281.7000	-3.00513E+006	333.727
281.6000	-2.99E+006	333.725
281.5000	-2.99285E+006	333.722
281.4000	-3.179E+006	333.739
281.3000	-3.30521E+006	333.743
281.2000	-3.22892E+006	333.741
281.1000	-3.17291E+006	333.738
281.0000	-3.15862E+006	333.729
280.9000	-3.18977E+006	333.722
280.8000	-3.18334E+006	333.712
280.7000	-3.26533E+006	333.705
280.6000	-3.27144E+006	333.703
280.5000	-3.24032E+006	333.691
280.4000	-3.16864E+006	333.68
280.3000	-3.1313E+006	333.663
280.2000	-3.00564E+006	333.648
280.1000	-3.185E+006	333.631
280.0000	-3.25481E+006	333.619
279.9000	-3.1759E+006	333.611
279.8000	-3.0924E+006	333.589
279.7000	-3.21137E+006	333.581
279.6000	-3.26622E+006	333.574
279.5000	-3.20095E+006	333.57
279.4000	-3.05743E+006	333.568
279.3000	-3.09887E+006	333.567
279.2000	-3.10332E+006	333.567
279.1000	-2.91419E+006	333.568
279.0000	-2.95848E+006	333.57
278.9000	-2.74736E+006	333.566
278.8000	-2.3114E+006	333.576
278.7000	-2.23056E+006	333.588
278.6000	-2.38942E+006	333.6
278.5000	-2.52926E+006	333.615
278.4000	-2.38988E+006	333.629
278.3000	-2.50587E+006	333.642
278.2000	-2.40557E+006	333.658
278.1000	-2.35664E+006	333.671
278.0000	-2.70009E+006	333.667
277.9000	-2.92507E+006	333.657
277.8000	-3.08868E+006	333.65
277.7000	-2.94362E+006	333.648
277.6000	-2.9042E+006	333.663
277.5000	-2.66766E+006	333.681
277.4000	-2.38379E+006	333.697
277.3000	-2.35591E+006	333.711
277.2000	-2.30206E+006	333.723
277.1000	-2.05931E+006	333.737
277.0000	-2.03095E+006	333.751
276.9000	-1.73331E+006	333.769
276.8000	-1.71005E+006	333.77
276.7000	-1.91785E+006	333.765
276.6000	-2.26704E+006	333.758
276.5000	-2.24556E+006	333.759
276.4000	-2.13187E+006	333.761
276.3000	-2.13824E+006	333.767
276.2000	-2.16871E+006	333.773
276.1000	-2.09158E+006	333.777
276.0000	-2.25824E+006	333.797
275.9000	-2.1262E+006	333.821
275.8000	-2.15094E+006	333.846
275.7000	-2.2205E+006	333.873
275.6000	-2.51938E+006	333.902
275.5000	-2.44689E+006	333.932
275.4000	-2.41162E+006	333.965
275.3000	-2.66253E+006	333.995
275.2000	-2.60743E+006	334.012
275.1000	-2.50735E+006	334.022
275.0000	-2.51915E+006	334.031
274.9000	-2.37781E+006	334.043
274.8000	-2.32474E+006	334.055
274.7000	-2.21144E+006	334.065
274.6000	-2.3507E+006	334.067
274.5000	-2.43479E+006	334.068
274.4000	-2.55982E+006	334.068
274.3000	-2.70276E+006	334.073
274.2000	-2.80902E+006	334.083
274.1000	-2.84719E+006	334.096
274.0000	-2.58827E+006	334.106
273.9000	-2.66598E+006	334.113
273.8000	-2.85321E+006	334.121
273.7000	-2.59447E+006	334.132
273.6000	-2.41165E+006	334.144
273.5000	-2.30313E+006	334.162
273.4000	-2.25823E+006	334.175
273.3000	-2.1419E+006	334.187
273.2000	-2.34481E+006	334.196
273.1000	-2.28653E+006	334.214
273.0000	-2.10067E+006	334.236
272.9000	-2.06828E+006	334.26
272.8000	-2.31156E+006	334.285
272.7000	-2.37338E+006	334.311
272.6000	-2.25426E+006	334.34
272.5000	-2.34656E+006	334.366
272.4000	-2.37595E+006	334.384
272.3000	-2.19269E+006	334.404
272.2000	-2.16163E+006	334.426
272.1000	-1.9618E+006	334.451
272.0000	-1.79292E+006	334.474
271.9000	-2.03404E+006	334.489
271.8000	-2.1674E+006	334.496
271.7000	-2.26463E+006	334.503
271.6000	-2.31791E+006	334.512
271.5000	-2.40848E+006	334.528
271.4000	-2.4238E+006	334.54
271.3000	-2.5616E+006	334.539
271.2000	-2.64249E+006	334.536
271.1000	-2.58167E+006	334.538
271.0000	-2.603E+006	334.548
270.9000	-2.79518E+006	334.546
270.8000	-2.79937E+006	334.543
270.7000	-2.78253E+006	334.536
270.6000	-2.85858E+006	334.523
270.5000	-3.11595E+006	334.512
270.4000	-3.18888E+006	334.506
270.3000	-3.32362E+006	334.496
270.2000	-3.11473E+006	334.49
270.1000	-2.78081E+006	334.493
270.0000	-2.74248E+006	334.503
269.9000	-2.70424E+006	334.516
269.8000	-2.66684E+006	334.53
269.7000	-2.43033E+006	334.543
269.6000	-2.21482E+006	334.561
269.5000	-2.19169E+006	334.578
269.4000	-2.09873E+006	334.586
269.3000	-2.25068E+006	334.599
269.2000	-2.35043E+006	334.615
269.1000	-2.16892E+006	334.635
269.0000	-2.17374E+006	334.649
268.9000	-2.16705E+006	334.669
268.8000	-2.35043E+006	334.685
268.7000	-2.39162E+006	334.715
268.6000	-2.53836E+006	334.751
268.5000	-2.56004E+006	334.792
268.4000	-2.64569E+006	334.83
268.3000	-2.66771E+006	334.853
268.2000	-2.72381E+006	334.883
268.1000	-2.74863E+006	334.912
268.0000	-2.75623E+006	334.96
267.9000	-2.69022E+006	334.999
267.8000	-2.69687E+006	335.047
267.7000	-2.84438E+006	335.09
267.6000	-2.95626E+006	335.138
267.5000	-3.14553E+006	335.186
267.4000	-3.32042E+006	335.228
267.3000	-3.5342E+006	335.285
267.2000	-3.56249E+006	335.334
267.1000	-3.82849E+006	335.385
267.0000	-3.94975E+006	335.431
266.9000	-3.82224E+006	335.479
266.8000	-3.56742E+006	335.519
266.7000	-3.3719E+006	335.55
266.6000	-3.28403E+006	335.602
266.5000	-3.07927E+006	335.653
266.4000	-3.04798E+006	335.71
266.3000	-2.81861E+006	335.767
266.2000	-2.57796E+006	335.824
266.1000	-2.37973E+006	335.878
266.0000	-2.36401E+006	335.919
265.9000	-2.17396E+006	335.98
265.8000	-1.89185E+006	336.044
265.7000	-1.57719E+006	336.109
265.6000	-1.47225E+006	336.17
265.5000	-1.47991E+006	336.228
265.4000	-1.47503E+006	336.277
265.3000	-1.72046E+006	336.324
265.2000	-1.72046E+006	336.391
265.1000	-1.78588E+006	336.46
265.0000	-1.91102E+006	336.526
264.9000	-2.10768E+006	336.591
264.8000	-2.16381E+006	336.642
264.7000	-2.13144E+006	336.693
264.6000	-2.19802E+006	336.751
264.5000	-2.2406E+006	336.819
264.4000	-2.35823E+006	336.89
264.3000	-2.58766E+006	336.946
264.2000	-2.60768E+006	337.011
264.1000	-2.53262E+006	337.073
264.0000	-2.70254E+006	337.135
263.9000	-2.67875E+006	337.199
263.8000	-2.59602E+006	337.255
263.7000	-2.58125E+006	337.31
263.6000	-2.4963E+006	337.377
263.5000	-2.32187E+006	337.452
263.4000	-2.33294E+006	337.523
263.3000	-2.74542E+006	337.567
263.2000	-2.88475E+006	337.626
263.1000	-2.97779E+006	337.701
263.0000	-3.02158E+006	337.791
262.9000	-3.00017E+006	337.869
262.8000	-2.89047E+006	337.941
262.7000	-2.53232E+006	338.015
262.6000	-2.23639E+006	338.097
262.5000	-1.8326E+006	338.2
262.4000	-1.46312E+006	338.292
262.3000	-1.41529E+006	338.371
262.2000	-1.10858E+006	338.441
262.1000	-922446	338.524
262.0000	-809311	338.597
261.9000	-1.12952E+006	338.661
261.8000	-1.30752E+006	338.726
261.7000	-1.59523E+006	338.779
261.6000	-1.67797E+006	338.838
261.5000	-1.7202E+006	338.904
261.4000	-1.75229E+006	338.976
261.3000	-1.52707E+006	339.044
261.2000	-1.23162E+006	339.123
261.1000	-720751	339.21
261.0000	-482349	339.301
260.9000	-654926	339.375
260.8000	-771681	339.458
260.7000	-713726	339.55
260.6000	-674111	339.638
260.5000	-1.0267E+006	339.723
260.4000	-1.05819E+006	339.808
260.3000	-1.45421E+006	339.891
260.2000	-1.75538E+006	339.961
260.1000	-1.38212E+006	340.043
260.0000	-1.12294E+006	340.132
259.9000	-1.01605E+006	340.211
259.8000	-1.04669E+006	340.29
259.7000	-1.08322E+006	340.365
259.6000	-1.1875E+006	340.434
259.5000	-1.07756E+006	340.508
259.4000	-849705	340.594
259.3000	-790299	340.674
259.2000	-724778	340.751
259.1000	-507246	340.832
259.0000	-536665	340.903
258.9000	-603059	340.98
258.8000	-640254	341.068
258.7000	-951508	341.144
258.6000	-1.31106E+006	341.215
258.5000	-1.61311E+006	341.288
258.4000	-1.98917E+006	341.358
258.3000	-2.17338E+006	341.435
258.2000	-2.22568E+006	341.525
258.1000	-2.15745E+006	341.612
258.0000	-2.36949E+006	341.704
257.9000	-2.30445E+006	341.808
257.8000	-2.13348E+006	341.91
257.7000	-2.04123E+006	342.018
257.6000	-1.95424E+006	342.134
257.5000	-2.01203E+006	342.236
257.4000	-2.05743E+006	342.342
257.3000	-2.26903E+006	342.441
257.2000	-2.26467E+006	342.536
257.1000	-2.32866E+006	342.627
257.0000	-2.37649E+006	342.714
256.9000	-2.25377E+006	342.799
256.8000	-2.25218E+006	342.871
256.7000	-2.13482E+006	342.956
256.6000	-2.12612E+006	343.041
256.5000	-2.01733E+006	343.119
256.4000	-1.85458E+006	343.199
256.3000	-1.67424E+006	343.276
256.2000	-1.38192E+006	343.363
256.1000	-1.38269E+006	343.456
256.0000	-1.46837E+006	343.538
255.9000	-1.5314E+006	343.616
255.8000	-1.43186E+006	343.685
255.7000	-1.42417E+006	343.766
255.6000	-1.52544E+006	343.846
255.5000	-1.67538E+006	343.92
255.4000	-1.69775E+006	343.996
255.3000	-1.92533E+006	344.065
255.2000	-2.06616E+006	344.146
255.1000	-2.07071E+006	344.23
255.0000	-2.06949E+006	344.322
254.9000	-1.88626E+006	344.399
254.8000	-2.07067E+006	344.476
254.7000	-1.90295E+006	344.57
254.6000	-1.89679E+006	344.664
254.5000	-2.22771E+006	344.76
254.4000	-2.37047E+006	344.844
254.3000	-2.23041E+006	344.943
254.2000	-1.98102E+006	345.046
254.1000	-2.08797E+006	345.159
254.0000	-1.91362E+006	345.273
253.9000	-1.86809E+006	345.391
253.8000	-1.9325E+006	345.497
253.7000	-1.5925E+006	345.599
253.6000	-1.21843E+006	345.692
253.5000	-1.20745E+006	345.777
253.4000	-1.68971E+006	345.841
253.3000	-2.00404E+006	345.91
253.2000	-1.95095E+006	345.984
253.1000	-1.805E+006	346.059
253.0000	-1.60114E+006	346.127
252.9000	-1.42398E+006	346.208
252.8000	-1.61167E+006	346.288
252.7000	-1.42833E+006	346.377
252.6000	-1.21217E+006	346.468
252.5000	-909333	346.572
252.4000	-833922	346.673
252.3000	-957998	346.766
252.2000	-934339	346.858
252.1000	-865601	346.955
252.0000	-724498	347.048
251.9000	-896034	347.126
251.8000	-1.22273E+006	347.209
251.7000	-1.22082E+006	347.285
251.6000	-1.1559E+006	347.359
251.5000	-1.07765E+006	347.438
251.4000	-1.40576E+006	347.522
251.3000	-1.7148E+006	347.593
251.2000	-2.02926E+006	347.661
251.1000	-2.4791E+006	347.747
251.0000	-2.60933E+006	347.834
250.9000	-2.72262E+006	347.934
250.8000	-2.88523E+006	348.037
250.7000	-3.3987E+006	348.14
250.6000	-3.34705E+006	348.248
250.5000	-3.17415E+006	348.35
250.4000	-3.30931E+006	348.458
250.3000	-3.16631E+006	348.567
250.2000	-3.05913E+006	348.679
250.1000	-2.75706E+006	348.775
250.0000	-2.49004E+006	348.865
249.9000	-2.44625E+006	348.955
249.8000	-2.39127E+006	349.036
249.7000	-2.54658E+006	349.123
249.6000	-2.48949E+006	349.215
249.5000	-2.2327E+006	349.299
249.4000	-1.9493E+006	349.383
249.3000	-1.77126E+006	349.481
249.2000	-1.96637E+006	349.579
249.1000	-1.96519E+006	349.684
249.0000	-1.6729E+006	349.79
248.9000	-1.21797E+006	349.89
248.8000	-906510	349.986
248.7000	-953283	350.083
248.6000	-1.35367E+006	350.185
248.5000	-1.53451E+006	350.291
248.4000	-1.5191E+006	350.382
248.3000	-1.38367E+006	350.46
248.2000	-1.33393E+006	350.534
248.1000	-1.54803E+006	350.613
248.0000	-1.96679E+006	350.698
247.9000	-2.07401E+006	350.792
247.8000	-1.56719E+006	350.886
247.7000	-1.28514E+006	350.97
247.6000	-1.30646E+006	351.062
247.5000	-1.3988E+006	351.156
247.4000	-1.40838E+006	351.245
247.3000	-1.48054E+006	351.331
247.2000	-1.44719E+006	351.423
247.1000	-1.43497E+006	351.506
247.0000	-1.62534E+006	351.587
246.9000	-1.75219E+006	351.675
246.8000	-2.12203E+006	351.755
246.7000	-2.44369E+006	351.831
246.6000	-2.54214E+006	351.909
246.5000	-2.61835E+006	351.999
246.4000	-2.3456E+006	352.086
246.3000	-2.1369E+006	352.17
246.2000	-2.07848E+006	352.251
246.1000	-2.25428E+006	352.343
246.0000	-2.20202E+006	352.439
245.9000	-1.88901E+006	352.537
245.8000	-1.98113E+006	352.641
245.7000	-1.89313E+006	352.759
245.6000	-1.87943E+006	352.869
245.5000	-2.00123E+006	352.975
245.4000	-2.03692E+006	353.094
245.3000	-1.834E+006	353.212
245.2000	-1.631E+006	353.328
245.1000	-1.36145E+006	353.445
245.0000	-1.11186E+006	353.559
244.9000	-803536	353.655
244.8000	-1.00609E+006	353.741
244.7000	-1.46538E+006	353.843
244.6000	-1.51423E+006	353.949
244.5000	-1.56721E+006	354.045
244.4000	-1.72215E+006	354.131
244.3000	-1.89804E+006	354.213
244.2000	-1.87484E+006	354.3
244.1000	-1.80754E+006	354.408
244.0000	-1.92236E+006	354.514
243.9000	-1.75862E+006	354.609
243.8000	-1.8659E+006	354.699
243.7000	-2.07045E+006	354.792
243.6000	-2.08389E+006	354.89
243.5000	-2.02528E+006	354.993
243.4000	-2.17215E+006	355.107
243.3000	-2.19846E+006	355.211
243.2000	-1.95019E+006	355.317
243.1000	-1.78711E+006	355.43
243.0000	-1.23792E+006	355.547
242.9000	-857233	355.658
242.8000	-749850	355.762
242.7000	-865475	355.864
242.6000	-837220	355.968
242.5000	-898260	356.075
242.4000	-1.24587E+006	356.181
242.3000	-1.75407E+006	356.286
242.2000	-2.16098E+006	356.394
242.1000	-2.3071E+006	356.502
242.0000	-2.33842E+006	356.615
241.9000	-2.30811E+006	356.737
241.8000	-2.21683E+006	356.858
241.7000	-2.21678E+006	356.973
241.6000	-2.09385E+006	357.085
241.5000	-1.97009E+006	357.203
241.4000	-1.70471E+006	357.323
241.3000	-1.67979E+006	357.445
241.2000	-1.50986E+006	357.567
241.1000	-1.23189E+006	357.69
241.0000	-1.21721E+006	357.816
240.9000	-1.21332E+006	357.941
240.8000	-1.52528E+006	358.065
240.7000	-1.76631E+006	358.192
240.6000	-1.91382E+006	358.315
240.5000	-1.85031E+006	358.437
240.4000	-2.04293E+006	358.563
240.3000	-2.79264E+006	358.691
240.2000	-3.12599E+006	358.822
240.1000	-3.03861E+006	358.958
240.0000	-2.76709E+006	359.1
239.9000	-2.37303E+006	359.243
239.8000	-2.06123E+006	359.386
239.7000	-2.30415E+006	359.529
239.6000	-2.80121E+006	359.675
239.5000	-2.44103E+006	359.83
239.4000	-2.15375E+006	359.979
239.3000	-1.97082E+006	360.123
239.2000	-2.0706E+006	360.267
239.1000	-2.35795E+006	360.41
239.0000	-2.79816E+006	360.552
238.9000	-2.5709E+006	360.709
238.8000	-2.06033E+006	360.871
238.7000	-1.89999E+006	361.024
238.6000	-1.75712E+006	361.172
238.5000	-1.76565E+006	361.322
238.4000	-1.90029E+006	361.477
238.3000	-1.77936E+006	361.642
238.2000	-1.61817E+006	361.809
238.1000	-1.69023E+006	361.966
238.0000	-1.9301E+006	362.119
237.9000	-2.02072E+006	362.278
237.8000	-2.33615E+006	362.435
237.7000	-2.48174E+006	362.597
237.6000	-2.40056E+006	362.758
237.5000	-2.36594E+006	362.922
237.4000	-2.22718E+006	363.092
237.3000	-2.15283E+006	363.264
237.2000	-2.01848E+006	363.44
237.1000	-1.97595E+006	363.608
237.0000	-1.91162E+006	363.778
236.9000	-1.95039E+006	363.951
236.8000	-1.88926E+006	364.128
236.7000	-2.04235E+006	364.299
236.6000	-1.88472E+006	364.461
236.5000	-1.98875E+006	364.624
236.4000	-2.03139E+006	364.787
236.3000	-2.39632E+006	364.956
236.2000	-2.71095E+006	365.13
236.1000	-2.61432E+006	365.302
236.0000	-2.53329E+006	365.478
235.9000	-2.35065E+006	365.656
235.8000	-2.19175E+006	365.836
235.7000	-2.17833E+006	366.005
235.6000	-2.08411E+006	366.179
235.5000	-1.91141E+006	366.357
235.4000	-1.79144E+006	366.537
235.3000	-1.56977E+006	366.71
235.2000	-1.67207E+006	366.878
235.1000	-1.8388E+006	367.047
235.0000	-2.24049E+006	367.216
234.9000	-2.57942E+006	367.39
234.8000	-2.80254E+006	367.574
234.7000	-2.83138E+006	367.763
234.6000	-2.98799E+006	367.937
234.5000	-2.99512E+006	368.119
234.4000	-3.10616E+006	368.308
234.3000	-3.05666E+006	368.499
234.2000	-3.16942E+006	368.69
234.1000	-3.07355E+006	368.883
234.0000	-2.7286E+006	369.068
233.9000	-2.67198E+006	369.248
233.8000	-2.72711E+006	369.435
233.7000	-2.9109E+006	369.619
233.6000	-2.90679E+006	369.812
233.5000	-3.18691E+006	370.007
233.4000	-3.49779E+006	370.195
233.3000	-3.50604E+006	370.392
233.2000	-4.07409E+006	370.593
233.1000	-4.24886E+006	370.792
233.0000	-4.08842E+006	370.992
232.9000	-3.69846E+006	371.194
232.8000	-3.61194E+006	371.396
232.7000	-3.75297E+006	371.595
232.6000	-3.60799E+006	371.799
232.5000	-3.72787E+006	372.005
232.4000	-3.56777E+006	372.202
232.3000	-3.81684E+006	372.404
232.2000	-3.81325E+006	372.606
232.1000	-4.08167E+006	372.81
232.0000	-4.35954E+006	373.009
231.9000	-4.35829E+006	373.21
231.8000	-4.31076E+006	373.408
231.7000	-4.20142E+006	373.611
231.6000	-4.17924E+006	373.817
231.5000	-3.74028E+006	374.025
231.4000	-3.55989E+006	374.237
231.3000	-3.72127E+006	374.436
231.2000	-3.78508E+006	374.637
231.1000	-3.99158E+006	374.836
231.0000	-4.26483E+006	375.03
230.9000	-4.64997E+006	375.223
230.8000	-5.09208E+006	375.415
230.7000	-5.34205E+006	375.618
230.6000	-5.49891E+006	375.817
230.5000	-5.6718E+006	376.025
230.4000	-5.77654E+006	376.236
230.3000	-5.86463E+006	376.451
230.2000	-5.53627E+006	376.668
230.1000	-5.23171E+006	376.886
230.0000	-4.89598E+006	377.099
229.9000	-4.99782E+006	377.3
229.8000	-5.36952E+006	377.504
229.7000	-5.47383E+006	377.7
229.6000	-5.62906E+006	377.894
229.5000	-5.76597E+006	378.079
229.4000	-5.91364E+006	378.262
229.3000	-6.32943E+006	378.447
229.2000	-6.42591E+006	378.634
229.1000	-6.08635E+006	378.824
229.0000	-5.5397E+006	379.018
228.9000	-5.11035E+006	379.215
228.8000	-4.77352E+006	379.412
228.7000	-4.35913E+006	379.622
228.6000	-4.21252E+006	379.836
228.5000	-3.98577E+006	380.052
228.4000	-4.02538E+006	380.277
228.3000	-4.40641E+006	380.508
228.2000	-4.51642E+006	380.744
228.1000	-4.97275E+006	380.985
228.0000	-5.57829E+006	381.224
227.9000	-6.45129E+006	381.456
227.8000	-6.85337E+006	381.691
227.7000	-7.25796E+006	381.933
227.6000	-7.16355E+006	382.173
227.5000	-6.82126E+006	382.408
227.4000	-6.5819E+006	382.644
227.3000	-6.33862E+006	382.88
227.2000	-5.93724E+006	383.112
227.1000	-5.3868E+006	383.344
227.0000	-5.22154E+006	383.57
226.9000	-4.9535E+006	383.79
226.8000	-4.82751E+006	384.013
226.7000	-5.2135E+006	384.234
226.6000	-5.67795E+006	384.448
226.5000	-5.88825E+006	384.658
226.4000	-5.63495E+006	384.871
226.3000	-5.75991E+006	385.082
226.2000	-5.92775E+006	385.301
226.1000	-6.05643E+006	385.521
226.0000	-6.12207E+006	385.736
225.9000	-6.19122E+006	385.947
225.8000	-6.13346E+006	386.163
225.7000	-5.9578E+006	386.38
225.6000	-6.16732E+006	386.593
225.5000	-5.84361E+006	386.812
225.4000	-5.20305E+006	387.032
225.3000	-4.3944E+006	387.259
225.2000	-4.0168E+006	387.485
225.1000	-3.42302E+006	387.715
225.0000	-3.21754E+006	387.937
224.9000	-3.14117E+006	388.157
224.8000	-3.35357E+006	388.378
224.7000	-3.91393E+006	388.597
224.6000	-4.90286E+006	388.812
224.5000	-5.57216E+006	389.026
224.4000	-6.29112E+006	389.236
224.3000	-6.94447E+006	389.446
224.2000	-7.01137E+006	389.663
224.1000	-7.01772E+006	389.888
224.0000	-7.31177E+006	390.112
223.9000	-7.14042E+006	390.338
223.8000	-6.71357E+006	390.569
223.7000	-6.39744E+006	390.8
223.6000	-5.86551E+006	391.036
223.5000	-5.25099E+006	391.27
223.4000	-5.19361E+006	391.495
223.3000	-5.36446E+006	391.708
223.2000	-5.33721E+006	391.922
223.1000	-5.63337E+006	392.135
223.0000	-6.1479E+006	392.349
222.9000	-6.39498E+006	392.569
222.8000	-6.91629E+006	392.783
222.7000	-7.23974E+006	392.998
222.6000	-7.54125E+006	393.214
222.5000	-7.72795E+006	393.436
222.4000	-7.75918E+006	393.655
222.3000	-7.7402E+006	393.877
222.2000	-7.44723E+006	394.099
222.1000	-7.30404E+006	394.315
222.0000	-7.04021E+006	394.529
221.9000	-7.13586E+006	394.735
221.8000	-6.7601E+006	394.949
221.7000	-6.81248E+006	395.165
221.6000	-6.59047E+006	395.387
221.5000	-6.49332E+006	395.61
221.4000	-6.07437E+006	395.826
221.3000	-5.74539E+006	396.044
221.2000	-5.51662E+006	396.265
221.1000	-5.20818E+006	396.489
221.0000	-5.44025E+006	396.706
220.9000	-5.83696E+006	396.921
220.8000	-5.80421E+006	397.138
220.7000	-5.90641E+006	397.35
220.6000	-6.04263E+006	397.569
220.5000	-6.79633E+006	397.79
220.4000	-6.82885E+006	398.007
220.3000	-6.83354E+006	398.227
220.2000	-6.88014E+006	398.454
220.1000	-6.58489E+006	398.68
220.0000	-6.42307E+006	398.905
219.9000	-6.5981E+006	399.132
219.8000	-6.91966E+006	399.353
219.7000	-6.63345E+006	399.575
219.6000	-6.63372E+006	399.794
219.5000	-6.75474E+006	400.016
219.4000	-6.40144E+006	400.243
219.3000	-6.07242E+006	400.468
219.2000	-5.89975E+006	400.692
219.1000	-5.83753E+006	400.914
219.0000	-4.73424E+006	401.152
218.9000	-3.97625E+006	401.382
218.8000	-3.7487E+006	401.613
218.7000	-3.74795E+006	401.838
218.6000	-4.14358E+006	402.059
218.5000	-4.31445E+006	402.278
218.4000	-4.59484E+006	402.501
218.3000	-4.88408E+006	402.721
218.2000	-5.07717E+006	402.94
218.1000	-5.69157E+006	403.155
218.0000	-5.8367E+006	403.377
217.9000	-5.96071E+006	403.598
217.8000	-5.22076E+006	403.822
217.7000	-5.26925E+006	404.045
217.6000	-5.12813E+006	404.269
217.5000	-5.39312E+006	404.493
217.4000	-6.01021E+006	404.709
217.3000	-6.54634E+006	404.926
217.2000	-6.30036E+006	405.151
217.1000	-6.33195E+006	405.371
217.0000	-6.57491E+006	405.59
216.9000	-6.34025E+006	405.817
216.8000	-5.79251E+006	406.041
216.7000	-4.85339E+006	406.262
216.6000	-3.89223E+006	406.492
216.5000	-3.84005E+006	406.714
216.4000	-4.05701E+006	406.932
216.3000	-4.4285E+006	407.147
216.2000	-3.98495E+006	407.38
216.1000	-4.34906E+006	407.601
216.0000	-4.46151E+006	407.824
215.9000	-4.81948E+006	408.047
215.8000	-4.99555E+006	408.268
215.7000	-4.99559E+006	408.496
215.6000	-4.72456E+006	408.728
215.5000	-4.21169E+006	408.966
215.4000	-4.39706E+006	409.192
215.3000	-5.06127E+006	409.415
215.2000	-5.77611E+006	409.64
215.1000	-6.33967E+006	409.873
215.0000	-6.66083E+006	410.112
214.9000	-6.58041E+006	410.351
214.8000	-6.72058E+006	410.587
214.7000	-6.39031E+006	410.829
214.6000	-6.23547E+006	411.069
214.5000	-6.11237E+006	411.314
214.4000	-5.39219E+006	411.561
214.3000	-4.60498E+006	411.81
214.2000	-4.64521E+006	412.048
214.1000	-4.27353E+006	412.292
214.0000	-4.04955E+006	412.536
213.9000	-4.69413E+006	412.773
213.8000	-5.72889E+006	413.009
213.7000	-5.77363E+006	413.256
213.6000	-5.60852E+006	413.505
213.5000	-6.09052E+006	413.749
213.4000	-6.41974E+006	413.995
213.3000	-6.75351E+006	414.246
213.2000	-7.67058E+006	414.491
213.1000	-7.96711E+006	414.747
213.0000	-7.28228E+006	415.01
212.9000	-7.14614E+006	415.274
212.8000	-7.46464E+006	415.525
212.7000	-7.50633E+006	415.782
212.6000	-7.28234E+006	416.047
212.5000	-7.43579E+006	416.309
212.4000	-7.13996E+006	416.579
212.3000	-7.00692E+006	416.841
212.2000	-7.31576E+006	417.103
212.1000	-7.61462E+006	417.366
212.0000	-7.96986E+006	417.637
211.9000	-8.23791E+006	417.915
211.8000	-8.78831E+006	418.183
211.7000	-9.05249E+006	418.454
211.6000	-9.20252E+006	418.726
211.5000	-9.49637E+006	418.998
211.4000	-9.47129E+006	419.278
211.3000	-9.63497E+006	419.556
211.2000	-9.35941E+006	419.835
211.1000	-8.99479E+006	420.112
211.0000	-8.45864E+006	420.4
210.9000	-8.15601E+006	420.685
210.8000	-7.67324E+006	420.977
210.7000	-6.95158E+006	421.278
210.6000	-6.31937E+006	421.575
210.5000	-5.8309E+006	421.873
210.4000	-5.30865E+006	422.172
210.3000	-5.23841E+006	422.476
210.2000	-5.05815E+006	422.778
210.1000	-4.83045E+006	423.081
210.0000	-4.36106E+006	423.382
209.9000	-4.29066E+006	423.679
209.8000	-4.53641E+006	423.974
209.7000	-4.90167E+006	424.27
209.6000	-5.4048E+006	424.567
209.5000	-5.67859E+006	424.872
209.4000	-6.08459E+006	425.169
209.3000	-6.72914E+006	425.464
209.2000	-6.67296E+006	425.773
209.1000	-6.84762E+006	426.081
209.0000	-6.05572E+006	426.397
208.9000	-4.8432E+006	426.721
208.8000	-4.20091E+006	427.04
208.7000	-3.75203E+006	427.354
208.6000	-3.40552E+006	427.678
208.5000	-2.7582E+006	428.006
208.4000	-2.50513E+006	428.328
208.3000	-2.82014E+006	428.655
208.2000	-3.4118E+006	428.977
208.1000	-3.94157E+006	429.301
208.0000	-4.39556E+006	429.622
207.9000	-5.15008E+006	429.937
207.8000	-5.82713E+006	430.256
207.7000	-6.41861E+006	430.578
207.6000	-7.7172E+006	430.895
207.5000	-8.31199E+006	431.205
207.4000	-8.76135E+006	431.523
207.3000	-9.37551E+006	431.837
207.2000	-9.35158E+006	432.158
207.1000	-8.54083E+006	432.487
207.0000	-8.1341E+006	432.816
206.9000	-7.18658E+006	433.145
206.8000	-6.51855E+006	433.472
206.7000	-6.09619E+006	433.801
206.6000	-5.3589E+006	434.132
206.5000	-4.87089E+006	434.463
206.4000	-5.07382E+006	434.789
206.3000	-6.17227E+006	435.109
206.2000	-6.0764E+006	435.433
206.1000	-6.60397E+006	435.748
206.0000	-7.32606E+006	436.065
205.9000	-7.22459E+006	436.387
205.8000	-7.63617E+006	436.706
205.7000	-7.48473E+006	437.032
205.6000	-6.74657E+006	437.362
205.5000	-5.88175E+006	437.7
205.4000	-5.22565E+006	438.033
205.3000	-4.8152E+006	438.369
205.2000	-4.10965E+006	438.708
205.1000	-3.70373E+006	439.049
205.0000	-3.52594E+006	439.388
204.9000	-3.66885E+006	439.724
204.8000	-4.22226E+006	440.06
204.7000	-4.26639E+006	440.403
204.6000	-4.05646E+006	440.748
204.5000	-4.39156E+006	441.094
204.4000	-4.50705E+006	441.44
204.3000	-5.0117E+006	441.785
204.2000	-4.92052E+006	442.14
204.1000	-4.31416E+006	442.5
204.0000	-3.61939E+006	442.864
203.9000	-3.7653E+006	443.215
203.8000	-4.31589E+006	443.568
203.7000	-4.47195E+006	443.926
203.6000	-4.48105E+006	444.291
203.5000	-4.23095E+006	444.658
203.4000	-4.56578E+006	445.021
203.3000	-5.52029E+006	445.385
203.2000	-5.8797E+006	445.76
203.1000	-4.87476E+006	446.148
203.0000	-4.09757E+006	446.54
202.9000	-3.57895E+006	446.933
202.8000	-2.89687E+006	447.324
202.7000	-2.91275E+006	447.718
202.6000	-2.80747E+006	448.113
202.5000	-1.52214E+006	448.516
202.4000	-620419	448.919
202.3000	-1.10177E+006	449.309
202.2000	-1.48274E+006	449.702
202.1000	-1.45342E+006	450.099
202.0000	-1.38406E+006	450.502
201.9000	-923040	450.914
201.8000	-77478.1	451.331
201.7000	209634	451.752
201.6000	-480143	452.167
201.5000	-774138	452.592
201.4000	-716891	453.026
201.3000	-1.19716E+006	453.459
201.2000	-1.28793E+006	453.899
201.1000	-901711	454.345
201.0000	-1.59444E+006	454.787
200.9000	-1.72504E+006	455.239
200.8000	-1.51002E+006	455.698
200.7000	-1.10146E+006	456.169
200.6000	-692967	456.649
200.5000	-29602.5	457.143
200.4000	916637	457.649
200.3000	309219	458.149
200.2000	455329	458.663
200.1000	417275	459.178
200.0000	309463	459.692
199.9000	138115	460.204
199.8000	-92791.1	460.712
199.7000	1.06349E+006	461.224
199.6000	1.63476E+006	461.731
199.5000	2.73681E+006	462.25
199.4000	3.88531E+006	462.772
199.3000	4.28799E+006	463.292
199.2000	4.5613E+006	463.819
199.1000	4.77964E+006	464.355
199.0000	5.34042E+006	464.909
198.9000	4.84238E+006	465.472
198.8000	4.05563E+006	466.048
198.7000	3.68044E+006	466.636
198.6000	3.22888E+006	467.24
198.5000	3.11273E+006	467.863
198.4000	3.27286E+006	468.505
198.3000	3.67511E+006	469.162
198.2000	3.84918E+006	469.84
198.1000	3.97401E+006	470.541
198.0000	3.26313E+006	471.263
197.9000	2.76648E+006	472.006
197.8000	2.65338E+006	472.768
197.7000	2.29558E+006	473.54
197.6000	2.29043E+006	474.326
197.5000	2.41986E+006	475.115
197.4000	3.67774E+006	475.906
197.3000	5.09432E+006	476.677
197.2000	6.33248E+006	477.415
197.1000	7.43846E+006	478.127
197.0000	7.69951E+006	478.818
196.9000	8.08812E+006	479.503
196.8000	8.38829E+006	480.183
196.7000	7.99297E+006	480.876
196.6000	7.61754E+006	481.593
196.5000	7.01407E+006	482.343
196.4000	6.6649E+006	483.149
196.3000	6.31537E+006	484.007
196.2000	6.33359E+006	484.924
196.1000	7.34538E+006	485.902
196.0000	7.70141E+006	486.942
195.9000	8.4808E+006	488.067
195.8000	8.96341E+006	489.281
195.7000	8.33832E+006	490.602
195.6000	8.07116E+006	492.037
195.5000	7.32674E+006	493.568
195.4000	8.02107E+006	495.189
195.3000	7.66264E+006	496.85
195.2000	7.37254E+006	498.554
195.1000	7.93499E+006	500.243
195.0000	7.57767E+006	501.845
194.9000	8.33783E+006	503.315
194.8000	8.97953E+006	504.617
194.7000	9.89991E+006	505.765
194.6000	1.14602E+007	506.802
194.5000	1.23382E+007	507.751
194.4000	1.35056E+007	508.654
194.3000	1.31539E+007	509.519
194.2000	1.25579E+007	510.441
194.1000	1.26374E+007	511.492
194.0000	1.25491E+007	512.71
193.9000	1.26142E+007	514.138
193.8000	1.25298E+007	515.79
193.7000	1.19889E+007	517.702
193.6000	1.04535E+007	519.885
193.5000	1.06824E+007	522.4
193.4000	1.19954E+007	525.274
193.3000	1.35994E+007	528.49
193.2000	1.35523E+007	531.994
193.1000	1.28072E+007	535.728
193.0000	1.1931E+007	539.592
192.9000	1.09206E+007	543.476
192.8000	1.15848E+007	547.254
192.7000	1.4153E+007	550.763
192.6000	1.52574E+007	553.797
192.5000	1.53057E+007	556.276
192.4000	1.55563E+007	558.254
192.3000	1.49585E+007	559.788
192.2000	1.51372E+007	560.985
192.1000	1.66692E+007	561.953
192.0000	1.7775E+007	562.82
191.9000	1.72512E+007	563.773
191.8000	1.66418E+007	565.064
191.7000	1.67879E+007	566.877
191.6000	1.66105E+007	569.242
191.5000	1.89606E+007	572.177
191.4000	2.047E+007	575.695
191.3000	2.14841E+007	579.879
191.2000	2.04591E+007	584.73
191.1000	1.94669E+007	590.222
191.0000	2.022E+007	596.252
190.9000	1.98072E+007	602.644
190.8000	2.30206E+007	609.316
190.7000	2.31043E+007	616.046
190.6000	2.2815E+007	622.639
190.5000	2.38147E+007	628.839
190.4000	2.44134E+007	634.342
190.3000	2.50116E+007	639.023
190.2000	2.79771E+007	642.933
190.1000	3.07737E+007	646.145
190.0000	3.07818E+007	648.785

##### Extended Information
[Comments]
Sample name	ACE2_doxer_0.8uM
Comment
User
Division
Company	CSIR-IMTECH

[Detailed Information]
Creation date	4/8/2024 7:22 PM

Data array type	Linear data array * 2
Horizontal axis	Wavelength [nm]
Vertical axis(1)	Mol. Ellip.
Vertical axis(2)	HT [V]
Start	350 nm
End	190 nm
Data interval	0.1 nm
Data points	1601    

[Measurement Information]
Instrument Name	JASCO CD
Model Name	J-815
Serial No.	B063061168

Accessory	PTC-423S
Accessory S/N	C013945-01
  Temperature	38.02 C
  Control Sonsor	Cell
  Monitor Sensor	Cell
  Start Mode	Start immediately
  Cell Length	10 mm

Measurement date	4/8/2024 7:21 PM

Photometric Mode	CD, HT
Measure Range	350 - 190 nm
Data pitch	0.1 nm
Sensitivity	Standard
D.I.T.	1 sec
Bandwidth	1.00 nm
Start Mode	Immediately
Scanning Speed	50 nm/min
Baseline Correction	None
Shutter Control	Auto
CD Detector	PMT
PMT Voltage	Auto
Accumulations	3
Concentration	0.27 umol/L

